i,ii,iii,avr,avl,avf,v1,v2,v3,v4,v5,v6,vx,vy,vz
-0.2805,-0.067,0.2135,0.174,-0.247,0.073,-0.0645,-0.1105,-0.096,-0.2385,-0.1585,-0.13,-0.023,0.084,0.0725
-0.282,-0.0635,0.2185,0.1725,-0.25,0.0775,-0.06,-0.1035,-0.0915,-0.237,-0.1565,-0.1285,-0.023,0.083,0.0735
-0.2755,-0.056,0.219,0.1655,-0.247,0.0815,-0.066,-0.1065,-0.0935,-0.2375,-0.157,-0.1295,-0.023,0.0835,0.0735
-0.2725,-0.054,0.2185,0.163,-0.245,0.082,-0.07,-0.1135,-0.097,-0.2415,-0.1585,-0.133,-0.0235,0.082,0.0745
-0.278,-0.057,0.221,0.1675,-0.249,0.0815,-0.065,-0.11,-0.0945,-0.239,-0.1575,-0.131,-0.023,0.0835,0.073
-0.274,-0.06,0.2135,0.167,-0.2435,0.0765,-0.0655,-0.1095,-0.0975,-0.242,-0.1615,-0.135,-0.0245,0.091,0.071
-0.265,-0.0575,0.207,0.1615,-0.2355,0.0745,-0.066,-0.1105,-0.099,-0.2455,-0.168,-0.14,-0.0305,0.0845,0.0725
-0.258,-0.0525,0.2055,0.155,-0.2315,0.0765,-0.0695,-0.111,-0.1015,-0.249,-0.173,-0.144,-0.033,0.0805,0.0745
-0.27,-0.0605,0.2095,0.165,-0.2395,0.074,-0.0745,-0.119,-0.11,-0.255,-0.178,-0.15,-0.034,0.081,0.075
-0.279,-0.0695,0.2095,0.174,-0.244,0.07,-0.075,-0.1205,-0.1125,-0.259,-0.181,-0.1525,-0.036,0.081,0.073
-0.275,-0.068,0.207,0.1715,-0.241,0.069,-0.077,-0.12,-0.112,-0.2585,-0.18,-0.153,-0.035,0.0775,0.0725
-0.284,-0.072,0.212,0.178,-0.2475,0.07,-0.076,-0.1225,-0.113,-0.257,-0.177,-0.1515,-0.0345,0.073,0.0715
-0.291,-0.0685,0.2225,0.1795,-0.2565,0.077,-0.075,-0.1165,-0.103,-0.247,-0.1665,-0.141,-0.031,0.076,0.0705
-0.2845,-0.0615,0.2225,0.173,-0.253,0.0805,-0.076,-0.1145,-0.099,-0.242,-0.162,-0.1355,-0.0255,0.078,0.0715
-0.264,-0.054,0.2105,0.159,-0.237,0.078,-0.072,-0.122,-0.109,-0.251,-0.168,-0.1405,-0.032,0.0705,0.079
-0.249,-0.043,0.2055,0.146,-0.227,0.081,-0.0695,-0.122,-0.11,-0.252,-0.1675,-0.14,-0.036,0.0675,0.0815
-0.254,-0.0515,0.2025,0.1525,-0.228,0.0755,-0.07,-0.1185,-0.106,-0.248,-0.1655,-0.1395,-0.034,0.077,0.076
-0.274,-0.0715,0.2025,0.173,-0.238,0.065,-0.0735,-0.12,-0.106,-0.2495,-0.171,-0.148,-0.0325,0.077,0.0765
-0.2885,-0.0825,0.206,0.1855,-0.247,0.0615,-0.078,-0.1165,-0.104,-0.247,-0.17,-0.149,-0.0275,0.073,0.0765
-0.2915,-0.088,0.2035,0.1895,-0.2475,0.058,-0.0785,-0.1115,-0.1015,-0.247,-0.1695,-0.148,-0.023,0.0675,0.076
-0.2945,-0.0955,0.1995,0.195,-0.2465,0.052,-0.0825,-0.114,-0.1025,-0.251,-0.174,-0.152,-0.0215,0.066,0.078
-0.302,-0.103,0.199,0.2025,-0.25,0.048,-0.087,-0.1215,-0.1035,-0.2495,-0.1705,-0.147,-0.0185,0.07,0.08
-0.3035,-0.0985,0.205,0.201,-0.254,0.053,-0.085,-0.1175,-0.099,-0.247,-0.166,-0.141,-0.0155,0.073,0.0815
-0.299,-0.0935,0.2055,0.196,-0.252,0.056,-0.085,-0.11,-0.094,-0.243,-0.1615,-0.136,-0.0145,0.0705,0.081
-0.3035,-0.095,0.2085,0.199,-0.256,0.057,-0.0865,-0.107,-0.0915,-0.2385,-0.158,-0.1315,-0.0125,0.066,0.0805
-0.31,-0.1035,0.2065,0.207,-0.258,0.051,-0.0895,-0.109,-0.0985,-0.248,-0.165,-0.1385,-0.0145,0.062,0.08
-0.3255,-0.1325,0.193,0.229,-0.259,0.03,-0.1005,-0.122,-0.113,-0.2635,-0.18,-0.1525,-0.017,0.0605,0.082
-0.32,-0.1255,0.1945,0.2225,-0.257,0.034,-0.098,-0.1165,-0.106,-0.2575,-0.175,-0.1485,-0.016,0.0655,0.0815
-0.299,-0.0985,0.2005,0.1985,-0.2495,0.0505,-0.089,-0.106,-0.095,-0.246,-0.1645,-0.1375,-0.0155,0.0655,0.078
-0.2875,-0.0885,0.199,0.188,-0.243,0.055,-0.083,-0.1025,-0.093,-0.2445,-0.1635,-0.1365,-0.0165,0.07,0.0775
-0.2815,-0.083,0.199,0.182,-0.24,0.0575,-0.086,-0.1055,-0.0965,-0.247,-0.1675,-0.14,-0.0215,0.0725,0.078
-0.289,-0.0795,0.21,0.184,-0.249,0.065,-0.0865,-0.1015,-0.0945,-0.243,-0.163,-0.1365,-0.024,0.071,0.079
-0.283,-0.0705,0.212,0.1765,-0.247,0.0705,-0.075,-0.0945,-0.088,-0.2375,-0.1585,-0.1335,-0.0285,0.068,0.078
-0.261,-0.0655,0.1955,0.163,-0.228,0.065,-0.075,-0.102,-0.094,-0.244,-0.1665,-0.1405,-0.035,0.0665,0.077
-0.2555,-0.0595,0.196,0.1575,-0.2255,0.068,-0.0665,-0.1055,-0.096,-0.247,-0.1675,-0.138,-0.035,0.072,0.0795
-0.2555,-0.056,0.1995,0.1555,-0.227,0.0715,-0.0605,-0.1065,-0.099,-0.251,-0.169,-0.1355,-0.0355,0.072,0.081
-0.255,-0.049,0.206,0.152,-0.2305,0.078,-0.0605,-0.1005,-0.0965,-0.25,-0.1655,-0.1315,-0.0335,0.0735,0.08
-0.2535,-0.0475,0.2065,0.1505,-0.23,0.0795,-0.0615,-0.1,-0.0945,-0.25,-0.1645,-0.132,-0.032,0.077,0.078
-0.2515,-0.0485,0.203,0.15,-0.227,0.077,-0.0655,-0.1005,-0.0955,-0.25,-0.162,-0.132,-0.03,0.0745,0.08
-0.273,-0.0625,0.2105,0.168,-0.2415,0.074,-0.07,-0.107,-0.1015,-0.257,-0.169,-0.1395,-0.0335,0.066,0.0835
-0.2645,-0.0645,0.2,0.1645,-0.2325,0.0675,-0.082,-0.121,-0.112,-0.2655,-0.1785,-0.1485,-0.0335,0.0645,0.089
-0.2615,-0.047,0.2145,0.1545,-0.2375,0.0835,-0.0675,-0.109,-0.0995,-0.2495,-0.164,-0.1355,-0.0285,0.069,0.0885
-0.2895,-0.0785,0.211,0.184,-0.25,0.066,-0.0725,-0.1185,-0.1115,-0.2625,-0.177,-0.149,-0.0325,0.0645,0.0845
-0.2645,-0.0715,0.193,0.168,-0.2285,0.0605,-0.081,-0.1195,-0.113,-0.264,-0.1785,-0.149,-0.028,0.0655,0.086
-0.2525,-0.0525,0.2,0.1525,-0.226,0.0735,-0.072,-0.1085,-0.1015,-0.255,-0.169,-0.1405,-0.026,0.066,0.088
-0.2505,-0.051,0.1995,0.151,-0.2245,0.074,-0.0775,-0.1135,-0.1045,-0.259,-0.174,-0.1435,-0.029,0.065,0.0915
-0.2595,-0.055,0.204,0.1575,-0.2315,0.074,-0.0755,-0.1165,-0.104,-0.253,-0.17,-0.1385,-0.0255,0.073,0.093
-0.2775,-0.0725,0.205,0.175,-0.241,0.066,-0.083,-0.1165,-0.107,-0.2575,-0.172,-0.139,-0.0245,0.0735,0.0925
-0.264,-0.0625,0.2015,0.163,-0.2325,0.069,-0.0775,-0.1045,-0.0975,-0.252,-0.1675,-0.1335,-0.024,0.0715,0.092
-0.284,-0.082,0.202,0.183,-0.2425,0.0595,-0.0765,-0.111,-0.1045,-0.258,-0.1735,-0.142,-0.0275,0.076,0.089
-0.249,-0.0485,0.2005,0.149,-0.2245,0.076,-0.07,-0.105,-0.0925,-0.246,-0.1605,-0.13,-0.028,0.0785,0.0885
-0.2395,-0.04,0.2,0.1395,-0.2195,0.08,-0.0625,-0.094,-0.083,-0.2375,-0.1535,-0.123,-0.026,0.072,0.0865
-0.276,-0.076,0.2,0.176,-0.2375,0.0615,-0.075,-0.102,-0.0935,-0.2475,-0.1645,-0.134,-0.0265,0.068,0.086
-0.2555,-0.059,0.1965,0.157,-0.2255,0.0685,-0.07,-0.096,-0.0865,-0.242,-0.16,-0.1315,-0.0255,0.067,0.089
-0.2545,-0.0585,0.1965,0.1565,-0.225,0.069,-0.072,-0.0965,-0.0895,-0.2455,-0.1645,-0.1355,-0.027,0.065,0.091
-0.2585,-0.0655,0.1935,0.162,-0.2255,0.0635,-0.0805,-0.1055,-0.095,-0.25,-0.168,-0.139,-0.0295,0.0635,0.092
-0.2625,-0.069,0.193,0.166,-0.2275,0.0615,-0.08,-0.1085,-0.0985,-0.251,-0.1695,-0.14,-0.0325,0.0655,0.0905
-0.264,-0.0655,0.1985,0.165,-0.231,0.066,-0.078,-0.107,-0.097,-0.2495,-0.1705,-0.14,-0.033,0.0675,0.0895
-0.2625,-0.0685,0.1935,0.1655,-0.2275,0.0625,-0.0805,-0.112,-0.101,-0.252,-0.1735,-0.144,-0.0305,0.064,0.0925
-0.2615,-0.0715,0.1895,0.1665,-0.2255,0.059,-0.082,-0.111,-0.1,-0.253,-0.1755,-0.1445,-0.029,0.0635,0.093
-0.253,-0.068,0.185,0.1605,-0.219,0.058,-0.085,-0.1065,-0.098,-0.2545,-0.175,-0.1445,-0.0285,0.061,0.094
-0.2575,-0.069,0.189,0.1635,-0.223,0.06,-0.087,-0.108,-0.0995,-0.2535,-0.1725,-0.1415,-0.0245,0.0625,0.0935
-0.272,-0.071,0.201,0.1715,-0.2365,0.0645,-0.0805,-0.1055,-0.0955,-0.2485,-0.168,-0.138,-0.026,0.069,0.0875
-0.2795,-0.085,0.1945,0.182,-0.237,0.0545,-0.086,-0.112,-0.1055,-0.2585,-0.176,-0.144,-0.0285,0.063,0.0885
-0.2855,-0.0945,0.191,0.19,-0.238,0.048,-0.0905,-0.115,-0.11,-0.264,-0.18,-0.145,-0.028,0.059,0.092
-0.289,-0.099,0.19,0.194,-0.2395,0.0455,-0.0845,-0.1125,-0.108,-0.263,-0.181,-0.1475,-0.0275,0.062,0.091
-0.281,-0.093,0.188,0.187,-0.2345,0.0475,-0.094,-0.118,-0.108,-0.2625,-0.1795,-0.147,-0.025,0.0645,0.0905
-0.2725,-0.085,0.1875,0.179,-0.23,0.051,-0.0925,-0.119,-0.108,-0.2605,-0.179,-0.1455,-0.023,0.0645,0.088
-0.2685,-0.084,0.185,0.176,-0.2265,0.05,-0.0785,-0.109,-0.103,-0.256,-0.1775,-0.144,-0.022,0.068,0.0835
-0.2755,-0.086,0.1895,0.181,-0.232,0.0515,-0.0815,-0.104,-0.0975,-0.25,-0.1725,-0.142,-0.0195,0.0655,0.0805
-0.2935,-0.1045,0.189,0.199,-0.241,0.042,-0.09,-0.114,-0.107,-0.259,-0.181,-0.1495,-0.019,0.0595,0.0815
-0.3115,-0.1195,0.192,0.2155,-0.2515,0.036,-0.094,-0.1195,-0.1155,-0.268,-0.1885,-0.1575,-0.022,0.063,0.083
-0.29,-0.101,0.189,0.1955,-0.2395,0.044,-0.09,-0.1175,-0.114,-0.2675,-0.187,-0.156,-0.025,0.0715,0.0825
-0.2445,-0.0685,0.176,0.1565,-0.21,0.0535,-0.0805,-0.1195,-0.116,-0.27,-0.188,-0.1525,-0.0305,0.07,0.087
-0.238,-0.0635,0.1745,0.151,-0.206,0.0555,-0.079,-0.121,-0.12,-0.2735,-0.193,-0.159,-0.0375,0.07,0.0855
-0.2455,-0.062,0.1835,0.154,-0.2145,0.0605,-0.0725,-0.111,-0.1115,-0.266,-0.186,-0.156,-0.039,0.074,0.081
-0.257,-0.066,0.191,0.162,-0.224,0.062,-0.072,-0.115,-0.109,-0.2625,-0.183,-0.154,-0.038,0.0715,0.081
-0.2685,-0.0705,0.1975,0.1695,-0.2325,0.0635,-0.07,-0.112,-0.1085,-0.2625,-0.1825,-0.1535,-0.0375,0.074,0.0785
-0.2595,-0.0625,0.197,0.161,-0.228,0.067,-0.057,-0.0965,-0.1,-0.2585,-0.1785,-0.147,-0.041,0.0695,0.076
-0.2535,-0.0545,0.199,0.154,-0.226,0.072,-0.049,-0.093,-0.093,-0.252,-0.1715,-0.139,-0.0375,0.074,0.0735
-0.2475,-0.0355,0.2125,0.1415,-0.2295,0.088,-0.045,-0.0935,-0.089,-0.2425,-0.162,-0.1285,-0.0335,0.088,0.075
-0.234,-0.021,0.213,0.1275,-0.2235,0.0955,-0.0475,-0.096,-0.0895,-0.242,-0.1605,-0.126,-0.0355,0.0915,0.078
-0.2315,-0.0205,0.211,0.126,-0.221,0.095,-0.055,-0.0985,-0.0925,-0.247,-0.165,-0.1315,-0.0355,0.098,0.077
-0.233,-0.019,0.214,0.126,-0.223,0.097,-0.063,-0.1025,-0.0915,-0.2455,-0.165,-0.1315,-0.031,0.1055,0.0755
-0.229,-0.0245,0.2045,0.127,-0.2165,0.0895,-0.0715,-0.1055,-0.0875,-0.238,-0.158,-0.127,-0.0225,0.106,0.0755
-0.228,-0.0225,0.206,0.1255,-0.217,0.0915,-0.0755,-0.105,-0.0855,-0.234,-0.157,-0.1265,-0.023,0.11,0.074
-0.2375,-0.016,0.2215,0.1265,-0.229,0.1025,-0.0655,-0.097,-0.0775,-0.229,-0.1525,-0.123,-0.024,0.1105,0.0705
-0.234,-0.016,0.218,0.125,-0.2255,0.101,-0.064,-0.097,-0.0775,-0.228,-0.1505,-0.1215,-0.022,0.108,0.07
-0.2215,0.002,0.2235,0.1095,-0.2225,0.1125,-0.0635,-0.0925,-0.0725,-0.221,-0.1455,-0.1165,-0.0225,0.1095,0.067
-0.22,0.0115,0.2315,0.104,-0.2255,0.1215,-0.059,-0.083,-0.063,-0.2125,-0.1365,-0.1105,-0.016,0.118,0.061
-0.2235,0.0035,0.227,0.11,-0.225,0.115,-0.062,-0.0855,-0.0675,-0.216,-0.1425,-0.115,-0.016,0.122,0.0585
-0.2155,0.0065,0.222,0.1045,-0.2185,0.114,-0.0635,-0.092,-0.0755,-0.222,-0.15,-0.119,-0.017,0.121,0.06
-0.23,-0.013,0.2175,0.1215,-0.2235,0.102,-0.0675,-0.099,-0.085,-0.231,-0.1575,-0.1255,-0.0165,0.1225,0.0615
-0.2725,-0.0395,0.2325,0.156,-0.2525,0.0965,-0.0675,-0.1025,-0.088,-0.2345,-0.1615,-0.13,-0.02,0.118,0.06
-0.2695,-0.035,0.234,0.1525,-0.2515,0.099,-0.061,-0.0985,-0.083,-0.231,-0.1575,-0.1245,-0.016,0.1195,0.0585
-0.2565,-0.0235,0.233,0.14,-0.2445,0.104,-0.052,-0.085,-0.0685,-0.217,-0.1445,-0.113,-0.0115,0.1225,0.0525
-0.251,-0.019,0.232,0.135,-0.2415,0.106,-0.047,-0.078,-0.06,-0.2085,-0.136,-0.106,-0.0065,0.114,0.0505
-0.2475,-0.023,0.2245,0.1355,-0.2355,0.1005,-0.0545,-0.0845,-0.0675,-0.2165,-0.144,-0.112,-0.006,0.1015,0.057
-0.246,-0.0175,0.2285,0.1315,-0.237,0.1055,-0.0535,-0.079,-0.063,-0.214,-0.143,-0.1115,-0.006,0.101,0.0555
-0.2375,-0.0135,0.224,0.1255,-0.2305,0.105,-0.0485,-0.07,-0.057,-0.209,-0.137,-0.1045,0.002,0.103,0.0535
-0.2325,-0.013,0.2195,0.1225,-0.226,0.103,-0.0575,-0.076,-0.061,-0.2135,-0.14,-0.107,0.0045,0.105,0.0595
-0.2295,-0.0095,0.22,0.1195,-0.2245,0.105,-0.062,-0.0825,-0.0635,-0.2145,-0.1405,-0.108,0.006,0.112,0.063
-0.2125,0.0025,0.2155,0.105,-0.2135,0.1085,-0.063,-0.083,-0.0625,-0.212,-0.1375,-0.104,0.011,0.1145,0.0695
-0.2155,-0.0055,0.21,0.1105,-0.2125,0.102,-0.0715,-0.0825,-0.064,-0.215,-0.141,-0.1065,0.0125,0.111,0.0715
-0.2325,-0.022,0.2105,0.1275,-0.2215,0.094,-0.08,-0.083,-0.0655,-0.2165,-0.1435,-0.109,0.014,0.1085,0.0695
-0.2125,-0.0035,0.209,0.108,-0.2105,0.1025,-0.0845,-0.083,-0.0625,-0.2135,-0.1395,-0.1055,0.017,0.111,0.0745
-0.2105,-0.0015,0.209,0.106,-0.2095,0.1035,-0.097,-0.0875,-0.065,-0.214,-0.139,-0.105,0.02,0.1105,0.08
-0.2135,0.008,0.2215,0.103,-0.2175,0.1145,-0.1115,-0.0895,-0.061,-0.21,-0.1345,-0.1005,0.0255,0.1215,0.0855
-0.2025,0.0215,0.224,0.0905,-0.213,0.1225,-0.1135,-0.0875,-0.0595,-0.206,-0.1325,-0.098,0.0225,0.127,0.0865
-0.2075,0.0285,0.236,0.0895,-0.2215,0.132,-0.112,-0.0845,-0.056,-0.2015,-0.128,-0.0935,0.0225,0.125,0.0865
-0.221,0.035,0.2555,0.093,-0.238,0.145,-0.1115,-0.0835,-0.0515,-0.1965,-0.1225,-0.0885,0.0255,0.13,0.09
-0.23,0.034,0.264,0.098,-0.2465,0.149,-0.11,-0.079,-0.048,-0.1935,-0.12,-0.0865,0.0265,0.1325,0.093
-0.224,0.038,0.2615,0.093,-0.2425,0.1495,-0.118,-0.0765,-0.0475,-0.1935,-0.1185,-0.083,0.032,0.134,0.099
-0.2065,0.0475,0.254,0.0795,-0.23,0.1505,-0.1185,-0.0795,-0.047,-0.192,-0.1155,-0.0785,0.033,0.136,0.103
-0.21,0.025,0.235,0.0925,-0.2225,0.1295,-0.13,-0.0965,-0.063,-0.208,-0.131,-0.0955,0.032,0.135,0.1065
-0.2085,-0.015,0.194,0.1115,-0.201,0.089,-0.166,-0.1275,-0.0935,-0.2375,-0.16,-0.123,0.035,0.137,0.1125
-0.193,-0.0045,0.1885,0.0985,-0.1905,0.092,-0.1755,-0.132,-0.0945,-0.2355,-0.155,-0.1165,0.041,0.143,0.118
-0.2035,0.0025,0.206,0.1005,-0.2045,0.104,-0.1765,-0.1295,-0.094,-0.2335,-0.1515,-0.1135,0.041,0.14,0.1285
-0.182,0.0225,0.2045,0.08,-0.193,0.113,-0.1795,-0.126,-0.093,-0.234,-0.153,-0.112,0.0405,0.14,0.14
-0.182,0.0245,0.2065,0.0785,-0.1935,0.115,-0.1815,-0.1215,-0.0925,-0.2335,-0.1505,-0.11,0.0425,0.144,0.146
-0.194,0.0125,0.207,0.091,-0.2005,0.1095,-0.1915,-0.129,-0.0975,-0.236,-0.156,-0.1145,0.039,0.1415,0.1515
-0.2005,0.0095,0.21,0.0955,-0.205,0.1095,-0.188,-0.129,-0.097,-0.2355,-0.156,-0.114,0.0375,0.1335,0.1565
-0.198,0.015,0.213,0.0915,-0.205,0.1135,-0.177,-0.1245,-0.0935,-0.2315,-0.152,-0.111,0.0405,0.129,0.1575
-0.1785,0.009,0.188,0.0845,-0.183,0.0985,-0.1875,-0.1405,-0.109,-0.247,-0.1645,-0.121,0.041,0.131,0.1585
-0.2,-0.0255,0.175,0.113,-0.1875,0.0745,-0.199,-0.1585,-0.134,-0.2705,-0.1835,-0.135,0.04,0.132,0.164
-0.1665,0.0085,0.175,0.079,-0.1705,0.0915,-0.186,-0.151,-0.1305,-0.2665,-0.1795,-0.127,0.0355,0.1295,0.17
-0.1495,0.017,0.1665,0.066,-0.158,0.0915,-0.1805,-0.149,-0.1355,-0.275,-0.1855,-0.1305,0.0305,0.1215,0.1755
-0.169,0.016,0.185,0.076,-0.1765,0.1005,-0.177,-0.1465,-0.1295,-0.268,-0.179,-0.1265,0.0315,0.1345,0.168
-0.167,0.042,0.2085,0.0625,-0.1875,0.125,-0.1635,-0.133,-0.1055,-0.24,-0.153,-0.1045,0.041,0.141,0.1595
-0.177,0.044,0.221,0.0665,-0.199,0.132,-0.149,-0.121,-0.0915,-0.2275,-0.1425,-0.0975,0.04,0.1375,0.1545
-0.1915,0.0435,0.2345,0.074,-0.2125,0.1385,-0.1435,-0.115,-0.088,-0.224,-0.142,-0.101,0.0305,0.1395,0.1505
-0.1825,0.041,0.2235,0.0705,-0.2025,0.132,-0.1505,-0.12,-0.095,-0.2285,-0.1475,-0.1055,0.0265,0.1365,0.1535
-0.165,0.0405,0.2055,0.0625,-0.185,0.1225,-0.148,-0.118,-0.0925,-0.2275,-0.147,-0.1055,0.0255,0.132,0.1515
-0.1855,0.0215,0.207,0.082,-0.196,0.114,-0.14,-0.118,-0.093,-0.2305,-0.1505,-0.111,0.0215,0.122,0.149
-0.1955,0.011,0.2065,0.092,-0.2005,0.1085,-0.1335,-0.113,-0.0905,-0.2305,-0.152,-0.1155,0.0195,0.121,0.143
-0.196,0.006,0.202,0.095,-0.199,0.104,-0.1305,-0.101,-0.086,-0.228,-0.1505,-0.1145,0.0245,0.1155,0.1385
-0.1975,-0.0005,0.197,0.099,-0.197,0.098,-0.13,-0.101,-0.082,-0.2225,-0.1475,-0.111,0.0235,0.109,0.134
-0.193,0.0015,0.1945,0.096,-0.1935,0.0975,-0.121,-0.1025,-0.075,-0.2125,-0.1385,-0.1025,0.022,0.1065,0.128
-0.1865,0.002,0.1885,0.0925,-0.187,0.095,-0.118,-0.107,-0.079,-0.215,-0.139,-0.102,0.0225,0.097,0.131
-0.182,0.0005,0.1825,0.091,-0.182,0.0915,-0.1235,-0.1115,-0.0875,-0.225,-0.1475,-0.108,0.017,0.1,0.1365
-0.197,-0.005,0.192,0.101,-0.1945,0.0935,-0.1265,-0.11,-0.085,-0.2225,-0.144,-0.102,0.02,0.1045,0.137
-0.202,-0.007,0.195,0.1045,-0.198,0.094,-0.124,-0.101,-0.0755,-0.2115,-0.134,-0.0945,0.027,0.1025,0.1335
-0.205,-0.0055,0.199,0.1055,-0.202,0.0965,-0.1275,-0.1095,-0.0825,-0.219,-0.14,-0.1005,0.0235,0.108,0.136
-0.207,-0.009,0.198,0.108,-0.2025,0.0945,-0.1305,-0.117,-0.085,-0.223,-0.1435,-0.103,0.023,0.112,0.1355
-0.193,-0.009,0.1845,0.101,-0.1885,0.0875,-0.1315,-0.1115,-0.084,-0.2195,-0.1415,-0.101,0.027,0.111,0.132
-0.1885,-0.0105,0.1785,0.0995,-0.183,0.084,-0.135,-0.115,-0.09,-0.2255,-0.145,-0.103,0.0265,0.1,0.1385
-0.1965,-0.0225,0.174,0.1095,-0.185,0.0755,-0.133,-0.115,-0.0915,-0.2295,-0.1505,-0.1085,0.0225,0.0905,0.139
-0.208,-0.034,0.174,0.121,-0.191,0.07,-0.137,-0.12,-0.0985,-0.234,-0.156,-0.113,0.0195,0.0875,0.141
-0.2055,-0.038,0.1675,0.1215,-0.186,0.0645,-0.1375,-0.1235,-0.104,-0.2395,-0.161,-0.117,0.0175,0.0775,0.1485
-0.205,-0.043,0.162,0.124,-0.183,0.0595,-0.1325,-0.1195,-0.1005,-0.2375,-0.159,-0.115,0.021,0.071,0.1485
-0.2145,-0.0535,0.161,0.134,-0.1875,0.0535,-0.1295,-0.1145,-0.0965,-0.2335,-0.1575,-0.114,0.022,0.0645,0.146
-0.2195,-0.0585,0.161,0.139,-0.19,0.051,-0.1275,-0.1145,-0.097,-0.2345,-0.16,-0.1175,0.018,0.0575,0.146
-0.226,-0.0615,0.1645,0.144,-0.195,0.051,-0.123,-0.115,-0.0975,-0.2355,-0.1585,-0.116,0.018,0.0555,0.146
-0.2235,-0.0595,0.1645,0.1415,-0.194,0.0525,-0.1255,-0.118,-0.1025,-0.2395,-0.1635,-0.1195,0.017,0.057,0.1435
-0.2155,-0.0485,0.1675,0.132,-0.191,0.0595,-0.127,-0.1195,-0.102,-0.238,-0.1615,-0.1195,0.0165,0.062,0.142
-0.2215,-0.048,0.1735,0.1345,-0.1975,0.0625,-0.125,-0.1135,-0.0945,-0.231,-0.1545,-0.1155,0.0175,0.065,0.134
-0.2235,-0.0495,0.174,0.1365,-0.1985,0.062,-0.1265,-0.1125,-0.0925,-0.2295,-0.155,-0.1175,0.0155,0.0705,0.126
-0.2175,-0.045,0.173,0.131,-0.195,0.064,-0.1245,-0.1085,-0.089,-0.2265,-0.1525,-0.1145,0.017,0.0755,0.1255
-0.219,-0.043,0.176,0.131,-0.197,0.0665,-0.123,-0.1065,-0.085,-0.2235,-0.151,-0.1125,0.0175,0.077,0.1265
-0.2075,-0.046,0.1615,0.127,-0.1845,0.0575,-0.1235,-0.1085,-0.0895,-0.227,-0.155,-0.1165,0.015,0.0755,0.1305
-0.1985,-0.046,0.152,0.122,-0.175,0.0525,-0.125,-0.1095,-0.0935,-0.232,-0.158,-0.119,0.0135,0.068,0.136
-0.202,-0.0515,0.15,0.127,-0.176,0.049,-0.1235,-0.1145,-0.0975,-0.2375,-0.164,-0.1235,0.0095,0.0595,0.1405
-0.199,-0.052,0.147,0.1255,-0.1725,0.047,-0.1225,-0.1115,-0.0975,-0.238,-0.1655,-0.1255,0.0095,0.0515,0.1405
-0.2045,-0.054,0.1505,0.1295,-0.1775,0.048,-0.1165,-0.108,-0.0965,-0.2355,-0.1655,-0.1255,0.008,0.054,0.136
-0.2,-0.0555,0.144,0.1275,-0.172,0.044,-0.109,-0.102,-0.092,-0.2305,-0.1615,-0.121,0.0095,0.0555,0.135
-0.179,-0.034,0.1445,0.1065,-0.1615,0.055,-0.1035,-0.095,-0.085,-0.223,-0.1555,-0.117,0.007,0.051,0.1335
-0.211,-0.0515,0.16,0.1315,-0.185,0.054,-0.1075,-0.1085,-0.101,-0.24,-0.174,-0.136,-0.001,0.051,0.1285
-0.252,-0.0925,0.1595,0.1725,-0.2055,0.0335,-0.1045,-0.118,-0.1145,-0.2555,-0.1915,-0.155,-0.0125,0.0425,0.125
-0.248,-0.0965,0.1515,0.1725,-0.1995,0.027,-0.0915,-0.1145,-0.1135,-0.2565,-0.1935,-0.1585,-0.0245,0.0315,0.123
-0.263,-0.1005,0.1625,0.182,-0.2125,0.0305,-0.0895,-0.1115,-0.1135,-0.257,-0.195,-0.1605,-0.0285,0.0295,0.118
-0.2675,-0.0935,0.174,0.1805,-0.2205,0.04,-0.082,-0.107,-0.1085,-0.25,-0.19,-0.156,-0.0295,0.0305,0.1145
-0.2635,-0.0895,0.174,0.1765,-0.2185,0.042,-0.083,-0.1055,-0.105,-0.246,-0.1855,-0.1525,-0.027,0.029,0.112
-0.271,-0.096,0.175,0.1835,-0.223,0.0395,-0.0835,-0.104,-0.1025,-0.244,-0.1825,-0.149,-0.027,0.0295,0.11
-0.262,-0.089,0.173,0.1755,-0.217,0.042,-0.081,-0.103,-0.1025,-0.2455,-0.1835,-0.15,-0.022,0.032,0.111
-0.2665,-0.097,0.169,0.1815,-0.2175,0.036,-0.0915,-0.1085,-0.111,-0.257,-0.193,-0.1575,-0.0215,0.0375,0.111
-0.269,-0.098,0.171,0.1835,-0.2195,0.036,-0.087,-0.11,-0.1125,-0.257,-0.193,-0.1535,-0.024,0.0415,0.1105
-0.275,-0.102,0.173,0.1885,-0.224,0.035,-0.0935,-0.1115,-0.1115,-0.254,-0.1885,-0.1505,-0.019,0.0455,0.111
-0.278,-0.103,0.175,0.1905,-0.226,0.036,-0.1,-0.1145,-0.1145,-0.257,-0.1915,-0.155,-0.021,0.044,0.1115
-0.267,-0.091,0.176,0.179,-0.2215,0.042,-0.0785,-0.1125,-0.1125,-0.2535,-0.189,-0.1535,-0.0245,0.037,0.112
-0.247,-0.074,0.173,0.1605,-0.2095,0.049,-0.081,-0.1155,-0.1145,-0.253,-0.1865,-0.1505,-0.025,0.041,0.1165
-0.2405,-0.064,0.1765,0.152,-0.2085,0.056,-0.086,-0.116,-0.115,-0.253,-0.183,-0.146,-0.026,0.04,0.1165
-0.239,-0.061,0.178,0.15,-0.2085,0.0585,-0.078,-0.112,-0.1085,-0.245,-0.178,-0.141,-0.0275,0.041,0.1145
-0.228,-0.062,0.166,0.145,-0.1965,0.0515,-0.0835,-0.1145,-0.109,-0.246,-0.1825,-0.1475,-0.026,0.0445,0.113
-0.2555,-0.0875,0.168,0.1715,-0.2115,0.04,-0.0865,-0.1205,-0.1105,-0.246,-0.1845,-0.153,-0.0275,0.041,0.108
-0.251,-0.079,0.172,0.165,-0.211,0.046,-0.083,-0.1225,-0.109,-0.243,-0.183,-0.151,-0.029,0.04,0.111
-0.2325,-0.065,0.1675,0.149,-0.2,0.051,-0.0755,-0.112,-0.102,-0.2385,-0.1775,-0.148,-0.025,0.0365,0.113
-0.2475,-0.072,0.1755,0.16,-0.211,0.0515,-0.0695,-0.101,-0.097,-0.2335,-0.1735,-0.143,-0.028,0.031,0.1125
-0.2695,-0.081,0.1885,0.1755,-0.2285,0.0535,-0.0705,-0.101,-0.096,-0.231,-0.171,-0.1405,-0.0285,0.033,0.1135
-0.282,-0.0975,0.184,0.1895,-0.2325,0.043,-0.082,-0.1065,-0.099,-0.234,-0.173,-0.1455,-0.0245,0.036,0.1085
-0.272,-0.1055,0.1665,0.1885,-0.219,0.0305,-0.0915,-0.118,-0.112,-0.2475,-0.186,-0.155,-0.0235,0.0335,0.1095
-0.2715,-0.1045,0.167,0.188,-0.219,0.031,-0.0875,-0.117,-0.1105,-0.246,-0.1845,-0.1525,-0.024,0.0305,0.11
-0.2765,-0.098,0.1785,0.187,-0.227,0.04,-0.0815,-0.1095,-0.102,-0.236,-0.1755,-0.145,-0.0245,0.0305,0.107
-0.284,-0.1,0.184,0.192,-0.2335,0.0415,-0.0765,-0.1045,-0.0955,-0.229,-0.1695,-0.14,-0.0225,0.03,0.1055
-0.283,-0.1,0.1825,0.1915,-0.2325,0.041,-0.075,-0.102,-0.0955,-0.23,-0.17,-0.142,-0.0235,0.034,0.104
-0.2725,-0.0985,0.174,0.1855,-0.223,0.0375,-0.0765,-0.1055,-0.099,-0.2315,-0.1725,-0.1455,-0.0265,0.0305,0.1035
-0.2705,-0.1,0.171,0.1855,-0.2205,0.0355,-0.0775,-0.1085,-0.0995,-0.23,-0.1705,-0.144,-0.0255,0.0245,0.1055
-0.2665,-0.0965,0.17,0.182,-0.218,0.0365,-0.0745,-0.104,-0.1,-0.232,-0.172,-0.145,-0.024,0.0285,0.1055
-0.264,-0.0945,0.1695,0.179,-0.2165,0.037,-0.0725,-0.0975,-0.0985,-0.2335,-0.174,-0.1465,-0.0265,0.033,0.1045
-0.2585,-0.088,0.1705,0.173,-0.214,0.041,-0.0725,-0.106,-0.1045,-0.2375,-0.177,-0.148,-0.0295,0.0345,0.1085
-0.251,-0.085,0.166,0.168,-0.208,0.04,-0.075,-0.1155,-0.1105,-0.2415,-0.1785,-0.151,-0.0295,0.035,0.1125
-0.267,-0.0975,0.17,0.182,-0.218,0.036,-0.0795,-0.1175,-0.114,-0.247,-0.1835,-0.1565,-0.0305,0.034,0.1145
-0.258,-0.0895,0.169,0.1735,-0.213,0.0395,-0.0765,-0.1105,-0.108,-0.2425,-0.181,-0.1535,-0.029,0.027,0.112
-0.242,-0.0745,0.1675,0.1585,-0.2045,0.046,-0.0715,-0.103,-0.1005,-0.2365,-0.1755,-0.1495,-0.0295,0.0275,0.108
-0.2455,-0.077,0.1685,0.161,-0.2065,0.045,-0.0705,-0.1015,-0.1005,-0.2355,-0.175,-0.1505,-0.032,0.0315,0.1055
-0.2515,-0.077,0.1745,0.164,-0.2125,0.0485,-0.0635,-0.0965,-0.0975,-0.231,-0.1725,-0.1475,-0.0315,0.029,0.102
-0.262,-0.076,0.1855,0.169,-0.2235,0.0545,-0.062,-0.0965,-0.097,-0.231,-0.1735,-0.15,-0.0335,0.032,0.102
-0.262,-0.0865,0.175,0.174,-0.2185,0.044,-0.0705,-0.1075,-0.1055,-0.238,-0.1795,-0.155,-0.032,0.0295,0.1035
-0.271,-0.105,0.1665,0.188,-0.2185,0.0305,-0.0775,-0.116,-0.116,-0.247,-0.1885,-0.161,-0.0305,0.0235,0.102
-0.2755,-0.11,0.166,0.1925,-0.2205,0.028,-0.0815,-0.116,-0.119,-0.2505,-0.191,-0.1645,-0.0315,0.0235,0.106
-0.2705,-0.1035,0.1665,0.187,-0.218,0.031,-0.075,-0.115,-0.1165,-0.2475,-0.1885,-0.161,-0.0325,0.021,0.1045
-0.272,-0.1025,0.169,0.187,-0.22,0.033,-0.0735,-0.1155,-0.118,-0.248,-0.1905,-0.162,-0.0365,0.0175,0.101
-0.272,-0.1015,0.1705,0.1865,-0.221,0.034,-0.0745,-0.115,-0.118,-0.247,-0.1885,-0.1605,-0.0325,0.0155,0.102
-0.28,-0.107,0.1725,0.1935,-0.226,0.0325,-0.0755,-0.1145,-0.118,-0.247,-0.1895,-0.16,-0.0305,0.02,0.1015
-0.2905,-0.1195,0.171,0.205,-0.2305,0.0255,-0.082,-0.12,-0.1235,-0.2535,-0.197,-0.1675,-0.0345,0.024,0.102
-0.2905,-0.117,0.1735,0.204,-0.2315,0.028,-0.083,-0.1215,-0.125,-0.2545,-0.1975,-0.1655,-0.031,0.031,0.102
-0.29,-0.113,0.177,0.2015,-0.2335,0.0315,-0.077,-0.1195,-0.123,-0.2515,-0.196,-0.167,-0.0335,0.033,0.1015
-0.2905,-0.109,0.1815,0.2,-0.2355,0.036,-0.0745,-0.1185,-0.1215,-0.2495,-0.1935,-0.1655,-0.0345,0.028,0.1
-0.2875,-0.109,0.178,0.198,-0.2325,0.0345,-0.0785,-0.1195,-0.123,-0.253,-0.197,-0.168,-0.038,0.025,0.0965
-0.289,-0.115,0.174,0.202,-0.231,0.029,-0.0765,-0.1205,-0.1255,-0.255,-0.199,-0.1725,-0.042,0.0225,0.0965
-0.2865,-0.1105,0.1755,0.1985,-0.231,0.0325,-0.075,-0.12,-0.1255,-0.2545,-0.1975,-0.17,-0.0395,0.026,0.1005
-0.2865,-0.1125,0.174,0.1995,-0.23,0.0305,-0.074,-0.119,-0.127,-0.256,-0.1995,-0.172,-0.041,0.0265,0.1005
-0.29,-0.116,0.174,0.2025,-0.2315,0.029,-0.075,-0.122,-0.1285,-0.2555,-0.199,-0.171,-0.039,0.0245,0.1
-0.289,-0.1145,0.1745,0.2015,-0.2315,0.03,-0.0795,-0.1255,-0.1305,-0.258,-0.2015,-0.173,-0.038,0.0245,0.1
-0.2915,-0.115,0.1765,0.203,-0.234,0.0305,-0.0795,-0.1245,-0.129,-0.258,-0.201,-0.1735,-0.0365,0.024,0.098
-0.289,-0.113,0.176,0.2005,-0.232,0.0315,-0.078,-0.1265,-0.132,-0.2595,-0.202,-0.1765,-0.038,0.026,0.096
-0.2905,-0.1165,0.174,0.2035,-0.232,0.0285,-0.0745,-0.1265,-0.1365,-0.2655,-0.2095,-0.1835,-0.0475,0.022,0.0965
-0.2925,-0.1285,0.164,0.2105,-0.228,0.0175,-0.0785,-0.1315,-0.143,-0.273,-0.216,-0.1885,-0.0515,0.018,0.099
-0.295,-0.1355,0.1595,0.2155,-0.227,0.0115,-0.0845,-0.1405,-0.1565,-0.285,-0.226,-0.195,-0.051,0.0205,0.1015
-0.2955,-0.127,0.168,0.2115,-0.2315,0.0205,-0.083,-0.1405,-0.155,-0.2825,-0.223,-0.1915,-0.0485,0.0225,0.101
-0.2995,-0.127,0.1725,0.213,-0.2355,0.0225,-0.0825,-0.136,-0.1465,-0.2755,-0.215,-0.1865,-0.045,0.023,0.097
-0.3145,-0.1345,0.18,0.2245,-0.247,0.0225,-0.083,-0.133,-0.1465,-0.275,-0.2165,-0.1895,-0.047,0.0185,0.0955
-0.321,-0.136,0.185,0.2285,-0.253,0.0245,-0.088,-0.139,-0.1435,-0.2695,-0.2095,-0.183,-0.0425,0.012,0.0965
-0.3185,-0.1275,0.1905,0.223,-0.254,0.031,-0.08,-0.135,-0.1415,-0.265,-0.205,-0.1775,-0.0435,0.016,0.0955
-0.301,-0.116,0.185,0.2085,-0.2425,0.0345,-0.0795,-0.129,-0.1395,-0.265,-0.207,-0.181,-0.0465,0.014,0.097
-0.2905,-0.1205,0.17,0.2055,-0.23,0.0245,-0.0925,-0.1345,-0.1455,-0.273,-0.214,-0.1875,-0.0425,0.0115,0.1
-0.2855,-0.1155,0.17,0.2005,-0.2275,0.027,-0.091,-0.1295,-0.145,-0.273,-0.214,-0.1875,-0.044,0.017,0.0985
-0.274,-0.107,0.167,0.1905,-0.2205,0.03,-0.0905,-0.121,-0.135,-0.264,-0.2055,-0.1795,-0.0415,0.018,0.0985
-0.271,-0.106,0.165,0.1885,-0.2175,0.029,-0.091,-0.1145,-0.1275,-0.2575,-0.199,-0.173,-0.038,0.019,0.1
-0.287,-0.1035,0.184,0.195,-0.2355,0.04,-0.0845,-0.1035,-0.1075,-0.237,-0.179,-0.1555,-0.029,0.026,0.0965
-0.2945,-0.1025,0.192,0.1985,-0.243,0.0445,-0.076,-0.0985,-0.0975,-0.228,-0.169,-0.1435,-0.023,0.0345,0.0975
-0.2735,-0.102,0.1715,0.188,-0.2225,0.0345,-0.074,-0.0985,-0.104,-0.238,-0.174,-0.146,-0.0215,0.023,0.1075
-0.277,-0.1115,0.1655,0.1945,-0.221,0.0265,-0.0745,-0.0985,-0.1065,-0.2425,-0.178,-0.149,-0.0225,0.018,0.1075
-0.2915,-0.1105,0.181,0.201,-0.236,0.035,-0.0675,-0.097,-0.1,-0.2355,-0.173,-0.145,-0.023,0.0285,0.101
-0.2805,-0.1,0.18,0.19,-0.23,0.04,-0.06,-0.094,-0.095,-0.2285,-0.1655,-0.1385,-0.019,0.028,0.0995
-0.2775,-0.1015,0.1765,0.1895,-0.2265,0.0375,-0.06,-0.0945,-0.097,-0.229,-0.1675,-0.1405,-0.023,0.026,0.098
-0.2855,-0.1075,0.178,0.1965,-0.2315,0.035,-0.066,-0.0985,-0.0995,-0.232,-0.17,-0.145,-0.0235,0.018,0.1
-0.2795,-0.1015,0.178,0.1905,-0.2285,0.038,-0.065,-0.0985,-0.1,-0.2325,-0.1715,-0.1465,-0.024,0.016,0.1
-0.2725,-0.088,0.1845,0.18,-0.228,0.048,-0.057,-0.0905,-0.092,-0.224,-0.1655,-0.1435,-0.0255,0.023,0.096
-0.271,-0.0865,0.1845,0.179,-0.2275,0.0485,-0.0605,-0.0965,-0.098,-0.23,-0.17,-0.1445,-0.0255,0.026,0.098
-0.2815,-0.1015,0.1805,0.1915,-0.2305,0.0395,-0.0745,-0.112,-0.114,-0.2445,-0.1825,-0.1535,-0.0285,0.0255,0.1
-0.3045,-0.123,0.1815,0.214,-0.243,0.029,-0.081,-0.119,-0.119,-0.248,-0.1855,-0.159,-0.0325,0.025,0.0975
-0.2995,-0.1175,0.182,0.2085,-0.2405,0.032,-0.077,-0.1175,-0.1165,-0.2455,-0.1845,-0.159,-0.035,0.0245,0.095
-0.287,-0.1025,0.1845,0.1945,-0.2355,0.041,-0.0725,-0.1085,-0.109,-0.2385,-0.177,-0.15,-0.032,0.022,0.0975
-0.287,-0.0965,0.1905,0.1915,-0.2385,0.047,-0.07,-0.1035,-0.103,-0.2335,-0.171,-0.144,-0.0305,0.0265,0.0985
-0.2785,-0.084,0.1945,0.181,-0.236,0.055,-0.0695,-0.0995,-0.098,-0.2295,-0.1665,-0.141,-0.029,0.028,0.097
-0.258,-0.0765,0.182,0.1675,-0.22,0.0525,-0.0695,-0.1025,-0.103,-0.2345,-0.17,-0.142,-0.0295,0.0265,0.0995
-0.2505,-0.078,0.172,0.164,-0.211,0.047,-0.0695,-0.107,-0.1085,-0.2405,-0.1785,-0.148,-0.032,0.024,0.099
-0.2595,-0.073,0.1865,0.1665,-0.2225,0.0565,-0.061,-0.099,-0.1005,-0.2325,-0.1705,-0.1415,-0.032,0.029,0.0965
-0.2925,-0.101,0.192,0.1965,-0.242,0.045,-0.0615,-0.107,-0.1055,-0.2375,-0.1765,-0.1475,-0.0325,0.0285,0.096
-0.3045,-0.127,0.1775,0.2155,-0.2405,0.025,-0.0805,-0.125,-0.125,-0.2575,-0.1955,-0.1645,-0.034,0.023,0.1
-0.2705,-0.1015,0.1695,0.186,-0.2195,0.034,-0.075,-0.123,-0.122,-0.253,-0.193,-0.162,-0.0325,0.0235,0.104
-0.2685,-0.0925,0.176,0.1805,-0.222,0.0415,-0.07,-0.118,-0.116,-0.246,-0.187,-0.1575,-0.031,0.0225,0.103
-0.2725,-0.0905,0.1815,0.1815,-0.2265,0.045,-0.0715,-0.1175,-0.1175,-0.249,-0.1865,-0.1555,-0.0335,0.028,0.102
-0.2715,-0.0835,0.1875,0.1775,-0.2295,0.0515,-0.065,-0.1105,-0.108,-0.241,-0.179,-0.1495,-0.032,0.028,0.098
-0.264,-0.0805,0.1835,0.172,-0.2235,0.0515,-0.0675,-0.105,-0.1045,-0.2385,-0.1765,-0.149,-0.0295,0.023,0.097
-0.2575,-0.078,0.1795,0.168,-0.2185,0.0505,-0.071,-0.1055,-0.1015,-0.2345,-0.1735,-0.1465,-0.027,0.0255,0.097
-0.2675,-0.0845,0.183,0.176,-0.225,0.049,-0.0705,-0.1075,-0.102,-0.234,-0.1755,-0.147,-0.028,0.0285,0.096
-0.274,-0.0925,0.182,0.183,-0.2275,0.0445,-0.0675,-0.1055,-0.1065,-0.241,-0.1815,-0.151,-0.031,0.0275,0.095
-0.2705,-0.09,0.1805,0.18,-0.225,0.045,-0.0675,-0.109,-0.1085,-0.2405,-0.1805,-0.151,-0.0295,0.0295,0.0935
-0.2655,-0.0885,0.1765,0.177,-0.221,0.0435,-0.073,-0.1165,-0.1145,-0.2485,-0.188,-0.159,-0.0335,0.028,0.0955
-0.278,-0.0905,0.1875,0.1845,-0.2325,0.048,-0.0705,-0.111,-0.1095,-0.245,-0.184,-0.154,-0.0325,0.025,0.0955
-0.267,-0.0725,0.1945,0.1695,-0.2305,0.061,-0.064,-0.1015,-0.1005,-0.2335,-0.1755,-0.1455,-0.0315,0.025,0.0945
-0.244,-0.054,0.1905,0.149,-0.217,0.068,-0.0575,-0.099,-0.0985,-0.2315,-0.1725,-0.1445,-0.035,0.0295,0.095
-0.235,-0.041,0.194,0.138,-0.214,0.0765,-0.049,-0.0935,-0.092,-0.2235,-0.1645,-0.138,-0.033,0.039,0.091
-0.2475,-0.0525,0.195,0.15,-0.221,0.0715,-0.0535,-0.097,-0.0965,-0.231,-0.1705,-0.144,-0.0345,0.04,0.0895
-0.264,-0.0735,0.1905,0.169,-0.227,0.058,-0.057,-0.0985,-0.102,-0.239,-0.178,-0.1525,-0.0375,0.0305,0.0885
-0.267,-0.0825,0.185,0.1745,-0.226,0.051,-0.0495,-0.087,-0.0925,-0.2315,-0.176,-0.153,-0.036,0.0185,0.08
-0.275,-0.096,0.179,0.1855,-0.227,0.0415,-0.041,-0.079,-0.0885,-0.2305,-0.1775,-0.157,-0.0385,0.0095,0.074
-0.271,-0.1035,0.1675,0.1875,-0.219,0.0315,-0.03,-0.0655,-0.082,-0.23,-0.1795,-0.1595,-0.0415,-0.003,0.0695
-0.2695,-0.1145,0.155,0.192,-0.212,0.02,-0.0235,-0.054,-0.0735,-0.226,-0.1785,-0.161,-0.0365,-0.005,0.066
-0.272,-0.1245,0.1475,0.1985,-0.2095,0.0115,-0.012,-0.0425,-0.065,-0.2225,-0.1775,-0.1625,-0.0395,-0.006,0.06
-0.306,-0.1735,0.1325,0.2395,-0.219,-0.0205,-0.004,-0.0375,-0.0715,-0.239,-0.1975,-0.1825,-0.0545,-0.0305,0.047
-0.2945,-0.18,0.1145,0.237,-0.204,-0.033,0.0245,-0.0125,-0.058,-0.237,-0.201,-0.1905,-0.0665,-0.052,0.0345
-0.2555,-0.1535,0.102,0.2045,-0.1785,-0.026,0.061,0.016,-0.0395,-0.227,-0.1965,-0.1885,-0.0805,-0.065,0.025
-0.2825,-0.1855,0.0975,0.234,-0.1895,-0.044,0.068,0.0175,-0.0455,-0.2405,-0.2125,-0.2085,-0.0955,-0.0775,0.0155
-0.295,-0.2025,0.093,0.249,-0.1935,-0.055,0.081,0.029,-0.0375,-0.2395,-0.2185,-0.22,-0.1025,-0.092,-0.0005
-0.2945,-0.2135,0.081,0.254,-0.1875,-0.0665,0.092,0.039,-0.032,-0.2405,-0.2255,-0.2295,-0.106,-0.1035,-0.013
-0.302,-0.234,0.068,0.268,-0.185,-0.083,0.094,0.0455,-0.027,-0.24,-0.2295,-0.237,-0.1065,-0.1115,-0.0165
-0.3225,-0.2595,0.063,0.291,-0.1925,-0.0985,0.1065,0.0565,-0.0185,-0.236,-0.233,-0.2475,-0.115,-0.121,-0.028
-0.322,-0.2715,0.0505,0.297,-0.186,-0.111,0.111,0.0685,-0.0115,-0.2345,-0.239,-0.2565,-0.1195,-0.127,-0.041
-0.308,-0.269,0.039,0.2885,-0.1735,-0.115,0.111,0.0715,-0.0045,-0.2295,-0.2365,-0.2565,-0.1175,-0.13,-0.0455
-0.2935,-0.256,0.0375,0.2745,-0.165,-0.1095,0.1295,0.086,0.0175,-0.2045,-0.214,-0.2395,-0.112,-0.135,-0.056
-0.2755,-0.2585,0.017,0.267,-0.146,-0.121,0.136,0.103,0.0395,-0.1815,-0.1945,-0.2225,-0.0975,-0.1415,-0.064
-0.301,-0.272,0.0295,0.2865,-0.165,-0.1215,0.137,0.122,0.0745,-0.1435,-0.164,-0.2045,-0.0815,-0.134,-0.079
-0.3215,-0.282,0.0395,0.3015,-0.18,-0.1215,0.1485,0.17,0.1475,-0.0665,-0.101,-0.1615,-0.045,-0.135,-0.109
-0.295,-0.2575,0.0375,0.2765,-0.166,-0.11,0.1505,0.2115,0.218,0.0155,-0.03,-0.1065,0.0,-0.129,-0.135
-0.25,-0.209,0.041,0.2295,-0.1455,-0.084,0.1325,0.2325,0.2715,0.0825,0.0315,-0.058,0.044,-0.1105,-0.151
-0.2255,-0.2005,0.0255,0.213,-0.1255,-0.0875,0.109,0.2535,0.3185,0.141,0.0795,-0.0225,0.0915,-0.0995,-0.1665
-0.2195,-0.2025,0.017,0.211,-0.118,-0.093,0.081,0.273,0.3725,0.2135,0.143,0.0255,0.1475,-0.0835,-0.18
-0.169,-0.161,0.008,0.165,-0.088,-0.0765,0.054,0.3045,0.453,0.322,0.242,0.1055,0.226,-0.062,-0.195
-0.0995,-0.0995,0.0005,0.0995,-0.0495,-0.05,0.0355,0.37,0.578,0.4755,0.378,0.213,0.3265,-0.0385,-0.231
-0.0135,-0.037,-0.023,0.0255,0.005,-0.0305,-0.011,0.433,0.7025,0.63,0.519,0.3275,0.447,-0.009,-0.2515
0.081,0.061,-0.02,-0.071,0.0505,0.0205,-0.101,0.4405,0.781,0.754,0.642,0.436,0.565,0.0555,-0.235
0.1465,0.1465,0.0,-0.1465,0.0735,0.073,-0.2205,0.418,0.833,0.8535,0.7435,0.53,0.668,0.1265,-0.1985
0.2195,0.2345,0.015,-0.227,0.1025,0.1245,-0.34,0.3915,0.873,0.9435,0.8435,0.6275,0.7745,0.1865,-0.1465
0.2735,0.3195,0.046,-0.2965,0.114,0.1825,-0.4655,0.315,0.8575,0.9815,0.9075,0.7015,0.862,0.253,-0.067
0.319,0.371,0.052,-0.345,0.1335,0.2115,-0.5855,0.215,0.792,0.959,0.921,0.739,0.915,0.293,0.0365
0.401,0.4455,0.0445,-0.423,0.1785,0.2445,-0.7005,0.1335,0.737,0.952,0.955,0.801,0.988,0.3265,0.1495
0.4885,0.509,0.02,-0.4985,0.2345,0.264,-0.8205,0.0595,0.6915,0.952,0.999,0.875,1.0735,0.357,0.2675
0.507,0.516,0.0095,-0.5115,0.249,0.2625,-0.9255,-0.081,0.5535,0.8545,0.956,0.876,1.089,0.364,0.4085
0.487,0.4915,0.0045,-0.489,0.2415,0.2475,-1.0105,-0.26,0.355,0.692,0.8535,0.8285,1.0555,0.3665,0.555
0.494,0.475,-0.019,-0.4845,0.2565,0.228,-1.072,-0.404,0.1775,0.5375,0.7575,0.788,1.0245,0.361,0.687
0.48,0.446,-0.0335,-0.463,0.257,0.206,-1.126,-0.56,-0.018,0.3615,0.6395,0.7255,0.9755,0.3425,0.828
0.4615,0.4105,-0.0505,-0.436,0.256,0.18,-1.1605,-0.686,-0.1905,0.197,0.5255,0.6635,0.9285,0.317,0.9465
0.448,0.4015,-0.047,-0.425,0.248,0.177,-1.1835,-0.803,-0.3615,0.031,0.4145,0.6075,0.8825,0.3075,1.0505
0.4505,0.3885,-0.062,-0.4195,0.2565,0.163,-1.2245,-0.8955,-0.4955,-0.1015,0.3265,0.5675,0.863,0.303,1.1335
0.4905,0.399,-0.0915,-0.4445,0.291,0.1535,-1.2685,-0.931,-0.567,-0.1835,0.2755,0.5555,0.8735,0.3005,1.192
0.535,0.441,-0.094,-0.488,0.3145,0.1735,-1.2985,-0.9755,-0.651,-0.2785,0.2115,0.5345,0.86,0.3115,1.2505
0.571,0.459,-0.112,-0.515,0.342,0.1735,-1.315,-0.984,-0.6895,-0.3325,0.1765,0.524,0.853,0.3135,1.28
0.589,0.4065,-0.1825,-0.498,0.386,0.112,-1.321,-0.954,-0.6855,-0.3535,0.1615,0.5215,0.868,0.2795,1.289
0.5755,0.335,-0.2405,-0.455,0.408,0.047,-1.314,-0.9345,-0.7015,-0.395,0.126,0.5005,0.8605,0.237,1.2945
0.544,0.287,-0.257,-0.4155,0.401,0.0145,-1.278,-0.9265,-0.7295,-0.449,0.076,0.464,0.819,0.1955,1.2995
0.53,0.231,-0.2985,-0.3805,0.4145,-0.034,-1.229,-0.916,-0.7505,-0.4985,0.024,0.423,0.773,0.136,1.303
0.526,0.1695,-0.356,-0.3475,0.4415,-0.0935,-1.193,-0.902,-0.7715,-0.548,-0.0265,0.3805,0.734,0.078,1.305
0.5005,0.107,-0.3935,-0.3035,0.4475,-0.1435,-1.1525,-0.8875,-0.792,-0.5955,-0.081,0.33,0.6855,0.0305,1.298
0.454,0.079,-0.375,-0.2665,0.4145,-0.148,-1.0915,-0.8685,-0.79,-0.616,-0.118,0.288,0.6285,0.032,1.253
0.4575,0.07,-0.3875,-0.264,0.423,-0.159,-1.047,-0.8565,-0.787,-0.6335,-0.1515,0.2485,0.59,0.047,1.2035
0.439,0.0555,-0.3835,-0.247,0.4115,-0.164,-0.9895,-0.815,-0.759,-0.624,-0.162,0.227,0.564,0.051,1.1475
0.376,0.0475,-0.3285,-0.212,0.3525,-0.1405,-0.903,-0.7465,-0.7005,-0.5845,-0.1405,0.2345,0.5455,0.0675,1.08
0.361,0.034,-0.3265,-0.1975,0.344,-0.1465,-0.8415,-0.6845,-0.6465,-0.5485,-0.121,0.242,0.544,0.0685,1.0215
0.341,0.0365,-0.3045,-0.1885,0.323,-0.1345,-0.7905,-0.628,-0.588,-0.5025,-0.0975,0.248,0.538,0.0825,0.9605
0.3125,0.0245,-0.2875,-0.1685,0.3005,-0.132,-0.735,-0.588,-0.5515,-0.487,-0.103,0.225,0.508,0.084,0.9095
0.2725,0.0205,-0.252,-0.1465,0.2625,-0.116,-0.6865,-0.5515,-0.527,-0.482,-0.125,0.188,0.463,0.0885,0.8535
0.2225,0.0395,-0.183,-0.131,0.203,-0.072,-0.6345,-0.516,-0.5005,-0.4725,-0.138,0.1595,0.423,0.123,0.7995
0.206,0.0275,-0.1785,-0.117,0.1925,-0.076,-0.581,-0.473,-0.467,-0.4585,-0.146,0.1325,0.3945,0.1245,0.7485
0.1915,0.011,-0.1805,-0.101,0.186,-0.085,-0.53,-0.4235,-0.4245,-0.4345,-0.143,0.116,0.369,0.109,0.699
0.153,-0.003,-0.1565,-0.075,0.155,-0.08,-0.492,-0.4025,-0.4145,-0.4385,-0.161,0.0855,0.3275,0.1,0.67
0.113,-0.0295,-0.1425,-0.0415,0.128,-0.086,-0.452,-0.378,-0.402,-0.4375,-0.179,0.0545,0.2835,0.085,0.633
0.0775,-0.0535,-0.1305,-0.012,0.104,-0.0925,-0.3945,-0.3455,-0.3815,-0.4345,-0.199,0.013,0.2315,0.07,0.5815
0.029,-0.061,-0.0905,0.016,0.06,-0.076,-0.341,-0.316,-0.368,-0.4375,-0.2225,-0.0285,0.176,0.0685,0.531
-0.032,-0.0695,-0.0375,0.0505,0.003,-0.0535,-0.283,-0.2805,-0.3425,-0.4285,-0.2315,-0.052,0.1315,0.0615,0.4905
-0.035,-0.08,-0.0445,0.0575,0.005,-0.0625,-0.249,-0.2705,-0.3375,-0.434,-0.257,-0.095,0.092,0.0515,0.454
-0.0425,-0.0805,-0.038,0.0615,-0.002,-0.0595,-0.224,-0.264,-0.3325,-0.4415,-0.2785,-0.1315,0.0605,0.06,0.417
-0.102,-0.0865,0.015,0.094,-0.058,-0.036,-0.193,-0.2445,-0.3085,-0.4255,-0.2745,-0.14,0.0415,0.0625,0.386
-0.133,-0.088,0.045,0.1105,-0.0885,-0.022,-0.178,-0.2275,-0.283,-0.4,-0.26,-0.1355,0.0355,0.061,0.3595
-0.1445,-0.0775,0.067,0.111,-0.1055,-0.0055,-0.166,-0.217,-0.266,-0.384,-0.251,-0.135,0.0295,0.067,0.334
-0.173,-0.0725,0.1005,0.123,-0.1365,0.0135,-0.1565,-0.207,-0.2485,-0.366,-0.242,-0.1375,0.021,0.078,0.3025
-0.2015,-0.067,0.1345,0.1345,-0.168,0.0335,-0.141,-0.1895,-0.226,-0.346,-0.23,-0.136,0.0105,0.088,0.2725
-0.226,-0.068,0.158,0.147,-0.1915,0.0445,-0.1305,-0.176,-0.2075,-0.3275,-0.2195,-0.1335,0.0085,0.087,0.2435
-0.2635,-0.0895,0.174,0.1765,-0.2185,0.042,-0.1195,-0.17,-0.1965,-0.316,-0.2165,-0.139,0.0045,0.084,0.21
-0.2195,-0.0345,0.1845,0.127,-0.202,0.075,-0.093,-0.146,-0.171,-0.2935,-0.199,-0.126,-0.004,0.089,0.1865
-0.167,0.0295,0.1965,0.069,-0.1815,0.1125,-0.0705,-0.1205,-0.141,-0.2635,-0.1725,-0.105,-0.0015,0.098,0.1685
-0.2115,-0.003,0.2085,0.1075,-0.21,0.1025,-0.07,-0.1165,-0.1325,-0.256,-0.1715,-0.1115,0.0005,0.1005,0.144
-0.227,-0.016,0.211,0.1215,-0.219,0.0975,-0.0695,-0.1175,-0.127,-0.25,-0.17,-0.1145,-0.002,0.0965,0.128
-0.2285,-0.022,0.2065,0.1255,-0.2175,0.092,-0.065,-0.118,-0.1245,-0.248,-0.1695,-0.116,-0.0025,0.0865,0.1185
-0.2395,-0.0365,0.203,0.138,-0.221,0.0825,-0.062,-0.1155,-0.123,-0.2505,-0.1755,-0.125,-0.007,0.0835,0.1095
-0.252,-0.0395,0.2125,0.1455,-0.232,0.086,-0.051,-0.1105,-0.1165,-0.244,-0.172,-0.1215,-0.01,0.0845,0.104
-0.287,-0.0505,0.2365,0.169,-0.2615,0.093,-0.037,-0.1005,-0.1065,-0.233,-0.1645,-0.1165,-0.014,0.076,0.09
-0.2915,-0.044,0.2475,0.168,-0.269,0.1015,-0.0235,-0.0885,-0.0945,-0.2225,-0.156,-0.1125,-0.0215,0.071,0.0795
-0.285,-0.033,0.252,0.159,-0.268,0.109,-0.0165,-0.083,-0.0905,-0.2195,-0.155,-0.1145,-0.027,0.074,0.081
-0.302,-0.0515,0.2505,0.177,-0.276,0.099,-0.0285,-0.0965,-0.1045,-0.2335,-0.1715,-0.1295,-0.031,0.0755,0.0825
-0.3105,-0.065,0.2455,0.188,-0.2775,0.09,-0.0315,-0.104,-0.112,-0.2395,-0.178,-0.1355,-0.0325,0.071,0.077
-0.259,-0.0435,0.2155,0.1515,-0.237,0.0855,-0.036,-0.108,-0.1165,-0.2445,-0.182,-0.139,-0.0315,0.0735,0.076
-0.225,-0.0425,0.183,0.134,-0.2035,0.07,-0.048,-0.117,-0.13,-0.2595,-0.1985,-0.154,-0.0355,0.08,0.074
-0.2505,-0.046,0.205,0.148,-0.2275,0.0795,-0.034,-0.1095,-0.1225,-0.251,-0.1945,-0.155,-0.0425,0.0805,0.066
-0.2645,-0.0395,0.2245,0.152,-0.2445,0.092,-0.0285,-0.111,-0.118,-0.2435,-0.1885,-0.148,-0.0405,0.0795,0.0655
-0.282,-0.0505,0.2315,0.1665,-0.2565,0.09,-0.0325,-0.113,-0.1225,-0.249,-0.1935,-0.152,-0.0435,0.076,0.0635
-0.279,-0.0445,0.2345,0.162,-0.2565,0.095,-0.0285,-0.1085,-0.122,-0.25,-0.1945,-0.1535,-0.0445,0.076,0.064
-0.2665,-0.034,0.2325,0.15,-0.249,0.099,-0.0205,-0.104,-0.1185,-0.2495,-0.1945,-0.1545,-0.048,0.08,0.064
-0.2595,-0.024,0.2355,0.142,-0.247,0.1055,-0.0095,-0.098,-0.112,-0.244,-0.19,-0.1505,-0.051,0.0815,0.0585
-0.2625,-0.0195,0.243,0.141,-0.2525,0.1115,-0.004,-0.0925,-0.105,-0.234,-0.181,-0.142,-0.047,0.0775,0.0485
-0.2685,-0.0225,0.246,0.1455,-0.257,0.1115,-0.0075,-0.089,-0.1,-0.2315,-0.1805,-0.1455,-0.0525,0.072,0.0425
-0.2645,-0.024,0.2405,0.1445,-0.2525,0.108,-0.0125,-0.0915,-0.1055,-0.2395,-0.1895,-0.153,-0.0535,0.0725,0.0465
-0.2705,-0.026,0.2445,0.1485,-0.2575,0.109,-0.0075,-0.0905,-0.104,-0.2365,-0.1865,-0.1505,-0.0505,0.077,0.043
-0.25,-0.0035,0.247,0.127,-0.2485,0.1215,-0.0025,-0.085,-0.096,-0.229,-0.1785,-0.1435,-0.0505,0.0785,0.0405
-0.2275,0.0115,0.239,0.108,-0.233,0.125,0.004,-0.081,-0.0955,-0.231,-0.18,-0.142,-0.054,0.073,0.0405
-0.24,0.007,0.247,0.1165,-0.2435,0.1265,0.008,-0.079,-0.0915,-0.2265,-0.1755,-0.1385,-0.0545,0.0725,0.0405
-0.2945,-0.044,0.2505,0.1695,-0.2725,0.103,-0.011,-0.0935,-0.104,-0.2375,-0.187,-0.1525,-0.049,0.069,0.042
-0.3555,-0.108,0.2475,0.232,-0.301,0.0695,-0.037,-0.1135,-0.1215,-0.254,-0.205,-0.1715,-0.047,0.0665,0.0395
-0.3825,-0.122,0.2605,0.2525,-0.3215,0.069,-0.0435,-0.1205,-0.123,-0.2555,-0.2075,-0.174,-0.0475,0.076,0.0405
-0.353,-0.092,0.261,0.2225,-0.3065,0.0845,-0.031,-0.109,-0.115,-0.2485,-0.2,-0.1665,-0.048,0.083,0.039
-0.3025,-0.0395,0.263,0.171,-0.2825,0.1115,-0.0075,-0.0855,-0.093,-0.2275,-0.18,-0.1475,-0.0495,0.0845,0.033
-0.3105,-0.0415,0.269,0.176,-0.2895,0.1135,-0.0045,-0.085,-0.0905,-0.2255,-0.1775,-0.146,-0.0475,0.0815,0.0325
-0.3175,-0.0575,0.26,0.1875,-0.2885,0.101,-0.0115,-0.09,-0.0965,-0.2305,-0.1825,-0.152,-0.0455,0.077,0.032
-0.2985,-0.045,0.2535,0.172,-0.276,0.104,-0.0035,-0.084,-0.091,-0.2245,-0.178,-0.1485,-0.044,0.0785,0.03
-0.302,-0.046,0.2555,0.174,-0.2785,0.1045,-0.0035,-0.088,-0.092,-0.2245,-0.178,-0.149,-0.043,0.082,0.0315
-0.3205,-0.064,0.257,0.1925,-0.2885,0.0965,-0.0085,-0.091,-0.0955,-0.2285,-0.1825,-0.1555,-0.045,0.078,0.033
-0.32,-0.062,0.258,0.191,-0.289,0.098,-0.0065,-0.0875,-0.0895,-0.224,-0.1785,-0.155,-0.0455,0.0765,0.0315
-0.2975,-0.0405,0.2565,0.169,-0.2765,0.1075,0.0,-0.082,-0.086,-0.2205,-0.1745,-0.1465,-0.046,0.08,0.033
-0.3015,-0.051,0.2505,0.1765,-0.2755,0.0995,-0.005,-0.0865,-0.0945,-0.228,-0.1815,-0.153,-0.051,0.076,0.0335
-0.3105,-0.0645,0.2465,0.1875,-0.278,0.091,-0.019,-0.0925,-0.1,-0.233,-0.1875,-0.159,-0.05,0.072,0.033
-0.296,-0.0505,0.2455,0.173,-0.2705,0.0975,-0.017,-0.091,-0.0985,-0.23,-0.186,-0.156,-0.048,0.07,0.0335
-0.2975,-0.0475,0.25,0.1725,-0.2735,0.101,-0.0115,-0.091,-0.096,-0.2255,-0.182,-0.154,-0.0465,0.067,0.032
-0.3065,-0.0485,0.2575,0.1775,-0.2815,0.1045,-0.011,-0.0935,-0.0965,-0.2265,-0.1825,-0.155,-0.048,0.0705,0.0305
-0.3,-0.0435,0.256,0.172,-0.278,0.106,-0.008,-0.0895,-0.093,-0.2245,-0.181,-0.1535,-0.0505,0.0685,0.0265
-0.299,-0.0455,0.2535,0.172,-0.276,0.1035,-0.002,-0.0825,-0.088,-0.2205,-0.1785,-0.15,-0.0505,0.065,0.023
-0.2965,-0.042,0.2545,0.169,-0.275,0.106,-0.005,-0.085,-0.09,-0.223,-0.1795,-0.1505,-0.051,0.0705,0.024
-0.291,-0.0365,0.2545,0.164,-0.2725,0.109,-0.006,-0.091,-0.0945,-0.227,-0.1815,-0.149,-0.049,0.072,0.0245
-0.298,-0.036,0.262,0.167,-0.28,0.113,0.0,-0.0905,-0.096,-0.2275,-0.183,-0.15,-0.051,0.072,0.023
-0.288,-0.031,0.257,0.1595,-0.2725,0.113,-0.0005,-0.0875,-0.0915,-0.2255,-0.181,-0.1505,-0.052,0.0725,0.023
-0.2745,-0.0215,0.253,0.148,-0.2635,0.1155,0.0,-0.086,-0.087,-0.222,-0.179,-0.1485,-0.05,0.0715,0.0275
-0.2855,-0.03,0.2555,0.158,-0.2705,0.1125,-0.005,-0.0885,-0.0905,-0.2235,-0.182,-0.1515,-0.0495,0.072,0.0285
-0.283,-0.0315,0.2515,0.157,-0.267,0.11,-0.0055,-0.0865,-0.09,-0.225,-0.1815,-0.153,-0.0485,0.072,0.0265
-0.275,-0.0235,0.251,0.149,-0.2625,0.1135,-0.004,-0.085,-0.089,-0.2235,-0.181,-0.1525,-0.0505,0.0705,0.0275
-0.2985,-0.0435,0.255,0.171,-0.2765,0.1055,-0.009,-0.091,-0.093,-0.2255,-0.1835,-0.1545,-0.0485,0.075,0.024
-0.3015,-0.041,0.2605,0.1715,-0.281,0.1095,-0.001,-0.0895,-0.0915,-0.2235,-0.1785,-0.1485,-0.0465,0.083,0.0225
-0.29,-0.034,0.256,0.162,-0.273,0.1105,0.0015,-0.087,-0.089,-0.221,-0.1755,-0.144,-0.0455,0.0835,0.0245
-0.2935,-0.039,0.255,0.166,-0.274,0.108,-0.0075,-0.088,-0.089,-0.221,-0.177,-0.1475,-0.045,0.0825,0.0255
-0.2775,-0.0185,0.259,0.148,-0.268,0.12,-0.004,-0.0845,-0.084,-0.214,-0.171,-0.1415,-0.041,0.082,0.0275
-0.2715,-0.008,0.2635,0.14,-0.267,0.1275,0.004,-0.078,-0.079,-0.2105,-0.1675,-0.1375,-0.038,0.082,0.0255
-0.284,-0.016,0.2685,0.15,-0.276,0.126,0.0015,-0.081,-0.0835,-0.215,-0.173,-0.1445,-0.043,0.0835,0.0255
-0.2945,-0.0325,0.262,0.1635,-0.278,0.1145,-0.005,-0.0835,-0.0855,-0.2155,-0.1765,-0.149,-0.0455,0.0745,0.0245
-0.303,-0.057,0.246,0.18,-0.274,0.094,-0.0125,-0.0825,-0.083,-0.2145,-0.176,-0.1475,-0.0405,0.062,0.024
-0.3115,-0.063,0.2485,0.1875,-0.28,0.0925,-0.018,-0.0875,-0.091,-0.225,-0.1835,-0.1545,-0.0415,0.065,0.0235
-0.3185,-0.053,0.2655,0.1855,-0.2915,0.106,-0.0145,-0.086,-0.097,-0.2335,-0.192,-0.164,-0.0445,0.078,0.02
-0.315,-0.0535,0.261,0.184,-0.2875,0.1035,-0.013,-0.0885,-0.0935,-0.2275,-0.189,-0.16,-0.041,0.0795,0.0205
-0.302,-0.0495,0.2525,0.176,-0.277,0.1015,-0.014,-0.094,-0.0945,-0.2275,-0.1885,-0.1605,-0.0395,0.074,0.021
-0.293,-0.039,0.254,0.166,-0.273,0.107,-0.01,-0.0935,-0.096,-0.2285,-0.1905,-0.1615,-0.0455,0.0765,0.02
-0.2915,-0.0385,0.253,0.165,-0.272,0.107,-0.006,-0.0945,-0.098,-0.2305,-0.1935,-0.164,-0.0515,0.079,0.018
-0.312,-0.0605,0.2515,0.186,-0.2815,0.0955,-0.0095,-0.097,-0.102,-0.236,-0.2005,-0.172,-0.0475,0.0775,0.017
-0.309,-0.059,0.2505,0.184,-0.2795,0.0955,-0.0145,-0.101,-0.106,-0.2385,-0.201,-0.17,-0.0475,0.079,0.018
-0.2905,-0.0385,0.252,0.1645,-0.271,0.1065,-0.01,-0.099,-0.104,-0.236,-0.197,-0.167,-0.049,0.0755,0.0175
-0.3055,-0.0405,0.265,0.173,-0.285,0.112,-0.002,-0.091,-0.0935,-0.224,-0.1875,-0.161,-0.0445,0.074,0.0115
-0.313,-0.044,0.269,0.1785,-0.291,0.112,0.0005,-0.083,-0.0855,-0.218,-0.181,-0.155,-0.046,0.074,0.005
-0.31,-0.0475,0.2625,0.1785,-0.286,0.1075,-0.0055,-0.084,-0.088,-0.223,-0.185,-0.1585,-0.0475,0.075,0.0075
-0.31,-0.046,0.264,0.178,-0.2865,0.109,-0.008,-0.0855,-0.09,-0.2235,-0.186,-0.1605,-0.047,0.0845,0.0085
-0.298,-0.037,0.261,0.1675,-0.2795,0.1115,-0.004,-0.081,-0.0845,-0.2175,-0.1815,-0.1575,-0.048,0.0845,0.0065
-0.2755,-0.0155,0.26,0.1455,-0.2675,0.122,-0.0005,-0.078,-0.0825,-0.2165,-0.1795,-0.1545,-0.051,0.086,0.008
-0.2695,-0.013,0.256,0.141,-0.2625,0.1215,-0.007,-0.0855,-0.09,-0.221,-0.1835,-0.1555,-0.0485,0.0945,0.011
-0.2675,-0.0215,0.246,0.1445,-0.2565,0.112,-0.016,-0.093,-0.096,-0.2235,-0.1855,-0.1565,-0.0435,0.0885,0.0155
-0.2815,-0.013,0.2685,0.1475,-0.275,0.1275,-0.0035,-0.0795,-0.0805,-0.2085,-0.1705,-0.144,-0.042,0.0805,0.0135
-0.2805,0.0015,0.282,0.1395,-0.281,0.1415,0.007,-0.07,-0.069,-0.1985,-0.1625,-0.137,-0.043,0.086,0.017
-0.276,-0.01,0.266,0.143,-0.2705,0.128,0.007,-0.072,-0.0735,-0.205,-0.17,-0.144,-0.0465,0.083,0.019
-0.2755,-0.0145,0.261,0.145,-0.268,0.123,0.007,-0.074,-0.0765,-0.208,-0.1715,-0.146,-0.046,0.0745,0.021
-0.2625,-0.0045,0.2585,0.1335,-0.26,0.1265,0.013,-0.072,-0.075,-0.207,-0.169,-0.144,-0.047,0.0675,0.0215
-0.286,-0.0295,0.2565,0.158,-0.271,0.1135,0.01,-0.0755,-0.0795,-0.214,-0.1765,-0.152,-0.048,0.063,0.014
-0.2765,-0.0265,0.25,0.1515,-0.263,0.1115,0.0,-0.0835,-0.0845,-0.219,-0.1805,-0.1565,-0.0465,0.0725,0.018
-0.246,0.0035,0.2495,0.121,-0.247,0.126,0.013,-0.0775,-0.0765,-0.21,-0.1725,-0.149,-0.0485,0.082,0.0165
-0.2495,0.011,0.261,0.119,-0.255,0.136,0.0205,-0.0725,-0.0705,-0.204,-0.1665,-0.144,-0.049,0.0865,0.0125
-0.2745,-0.0135,0.261,0.144,-0.2675,0.1235,0.007,-0.075,-0.0735,-0.208,-0.171,-0.1495,-0.0495,0.084,0.0115
-0.2865,-0.0275,0.2595,0.157,-0.2725,0.116,0.006,-0.0775,-0.0765,-0.21,-0.174,-0.151,-0.0475,0.0855,0.0115
-0.3175,-0.056,0.2615,0.1865,-0.2895,0.1025,-0.0065,-0.092,-0.09,-0.224,-0.1855,-0.1635,-0.0495,0.0895,0.014
-0.337,-0.072,0.265,0.2045,-0.301,0.0965,-0.0155,-0.1015,-0.0995,-0.2345,-0.195,-0.173,-0.052,0.0905,0.014
-0.301,-0.036,0.2645,0.1685,-0.2825,0.114,-0.0055,-0.087,-0.0865,-0.2195,-0.1825,-0.16,-0.0465,0.0875,0.018
-0.2975,-0.0275,0.2695,0.1625,-0.283,0.1205,-0.005,-0.0775,-0.0795,-0.2135,-0.1755,-0.155,-0.048,0.086,0.017
-0.301,-0.0295,0.2715,0.165,-0.286,0.1205,-0.002,-0.0765,-0.077,-0.212,-0.174,-0.156,-0.0505,0.0865,0.0125
-0.286,-0.04,0.246,0.163,-0.2655,0.103,-0.006,-0.0865,-0.0865,-0.221,-0.1845,-0.167,-0.0515,0.0805,0.013
-0.291,-0.04,0.2505,0.1655,-0.2705,0.105,-0.002,-0.087,-0.089,-0.225,-0.1885,-0.168,-0.054,0.081,0.013
-0.287,-0.026,0.2605,0.1565,-0.2735,0.117,0.003,-0.0765,-0.076,-0.2135,-0.178,-0.1585,-0.048,0.082,0.0115
-0.271,-0.023,0.248,0.1475,-0.2595,0.112,0.0025,-0.076,-0.077,-0.2135,-0.1795,-0.1605,-0.05,0.077,0.006
-0.271,-0.0185,0.2525,0.1445,-0.2615,0.117,0.007,-0.074,-0.077,-0.213,-0.1785,-0.1615,-0.0575,0.076,0.002
-0.2645,-0.0125,0.2525,0.1385,-0.258,0.1195,0.008,-0.0725,-0.0745,-0.2105,-0.1765,-0.16,-0.0575,0.081,0.0045
-0.291,-0.0365,0.2545,0.1635,-0.2725,0.109,0.0065,-0.0765,-0.079,-0.213,-0.1805,-0.1645,-0.055,0.082,0.002
-0.3085,-0.049,0.259,0.1785,-0.2835,0.1045,0.001,-0.0805,-0.0815,-0.216,-0.184,-0.169,-0.0535,0.0805,0.0005
-0.297,-0.0385,0.259,0.1675,-0.278,0.11,0.0045,-0.082,-0.082,-0.2165,-0.1845,-0.169,-0.0555,0.079,0.0025
-0.311,-0.0535,0.2575,0.1825,-0.284,0.1015,0.0045,-0.0855,-0.083,-0.2175,-0.1855,-0.1735,-0.056,0.078,0.0015
-0.307,-0.051,0.2555,0.179,-0.281,0.102,0.0015,-0.088,-0.0865,-0.2225,-0.191,-0.1775,-0.058,0.08,0.0045
-0.2905,-0.0335,0.2565,0.162,-0.2735,0.111,0.0085,-0.0775,-0.08,-0.2175,-0.187,-0.172,-0.0575,0.08,0.0035
-0.302,-0.0435,0.2585,0.173,-0.28,0.107,0.0045,-0.076,-0.0765,-0.2135,-0.1835,-0.1705,-0.0545,0.0815,-0.0005
-0.3035,-0.0475,0.256,0.1755,-0.2795,0.1045,0.002,-0.0795,-0.0765,-0.2145,-0.186,-0.172,-0.055,0.0825,0.0015
-0.294,-0.034,0.26,0.164,-0.2765,0.113,0.0045,-0.078,-0.0715,-0.2085,-0.1775,-0.163,-0.0515,0.088,0.0035
-0.303,-0.035,0.268,0.169,-0.285,0.116,0.007,-0.0735,-0.067,-0.204,-0.173,-0.159,-0.0485,0.0885,-0.0005
-0.296,-0.032,0.264,0.164,-0.28,0.116,0.01,-0.0685,-0.0645,-0.205,-0.176,-0.162,-0.0495,0.09,-0.0035
-0.294,-0.0305,0.264,0.1625,-0.279,0.1165,0.003,-0.0735,-0.0675,-0.2075,-0.1775,-0.1645,-0.054,0.092,-0.0015
-0.2975,-0.035,0.2625,0.1665,-0.28,0.1135,0.0035,-0.073,-0.0685,-0.2075,-0.179,-0.167,-0.0545,0.086,-0.005
-0.2855,-0.0295,0.256,0.1575,-0.2705,0.113,0.0065,-0.072,-0.0675,-0.205,-0.178,-0.1655,-0.0535,0.0875,-0.0065
-0.2785,-0.0225,0.256,0.1505,-0.267,0.1165,0.012,-0.0705,-0.0655,-0.2015,-0.1765,-0.165,-0.0575,0.088,-0.007
-0.281,-0.025,0.256,0.153,-0.2685,0.1155,0.012,-0.07,-0.0675,-0.2065,-0.182,-0.17,-0.058,0.0865,-0.007
-0.293,-0.0365,0.2565,0.165,-0.2745,0.1095,0.007,-0.0765,-0.072,-0.209,-0.1845,-0.1735,-0.056,0.0835,-0.0075
-0.2955,-0.04,0.2555,0.1675,-0.2755,0.1075,0.008,-0.0765,-0.069,-0.205,-0.1835,-0.1755,-0.0545,0.08,-0.015
-0.2845,-0.0245,0.26,0.1545,-0.272,0.1175,0.0115,-0.07,-0.064,-0.2025,-0.182,-0.175,-0.057,0.0835,-0.015
-0.2815,-0.021,0.26,0.151,-0.2705,0.1195,0.0155,-0.071,-0.067,-0.206,-0.1865,-0.1775,-0.0585,0.0875,-0.014
-0.285,-0.033,0.2525,0.159,-0.2685,0.1095,0.0105,-0.077,-0.0755,-0.214,-0.194,-0.185,-0.06,0.085,-0.0135
-0.295,-0.032,0.2635,0.1635,-0.279,0.1155,0.0115,-0.076,-0.0775,-0.2145,-0.1925,-0.1825,-0.0595,0.0885,-0.0135
-0.297,-0.0335,0.2635,0.165,-0.28,0.115,0.0155,-0.0755,-0.074,-0.211,-0.1885,-0.181,-0.056,0.094,-0.0175
-0.293,-0.0345,0.2585,0.164,-0.2755,0.112,0.0105,-0.08,-0.0755,-0.2125,-0.1905,-0.1865,-0.0615,0.0915,-0.02
-0.296,-0.0335,0.2625,0.165,-0.2795,0.1145,0.0135,-0.0815,-0.0775,-0.216,-0.1945,-0.19,-0.0685,0.0905,-0.0235
-0.2865,-0.037,0.2495,0.162,-0.2675,0.106,0.0145,-0.084,-0.085,-0.226,-0.2035,-0.199,-0.076,0.0845,-0.0245
-0.2865,-0.0405,0.2455,0.1635,-0.266,0.1025,0.011,-0.0945,-0.0945,-0.235,-0.212,-0.207,-0.0815,0.08,-0.019
-0.292,-0.037,0.255,0.1645,-0.273,0.1085,0.015,-0.0895,-0.0855,-0.2255,-0.2025,-0.1985,-0.074,0.0845,-0.017
-0.28,-0.03,0.25,0.155,-0.265,0.11,0.0165,-0.082,-0.08,-0.2225,-0.1985,-0.1945,-0.0715,0.083,-0.0205
-0.2815,-0.019,0.2625,0.1505,-0.272,0.1215,0.019,-0.074,-0.0725,-0.2195,-0.1965,-0.1895,-0.074,0.0905,-0.0265
-0.2855,-0.0125,0.273,0.149,-0.279,0.13,0.0215,-0.0615,-0.0595,-0.208,-0.1815,-0.176,-0.067,0.096,-0.028
-0.2865,-0.0195,0.267,0.153,-0.2765,0.1235,0.021,-0.059,-0.0535,-0.2,-0.1715,-0.167,-0.0595,0.092,-0.0275
-0.2945,-0.0235,0.271,0.159,-0.2825,0.1235,0.0205,-0.052,-0.0425,-0.189,-0.1635,-0.1595,-0.0555,0.095,-0.034
-0.2935,-0.023,0.2705,0.1585,-0.282,0.1235,0.0235,-0.047,-0.034,-0.1815,-0.157,-0.153,-0.0505,0.092,-0.0335
-0.3045,-0.0375,0.267,0.171,-0.2855,0.1145,0.0245,-0.047,-0.034,-0.1835,-0.158,-0.1565,-0.051,0.0855,-0.0335
-0.325,-0.058,0.267,0.192,-0.296,0.104,0.0155,-0.0495,-0.0365,-0.1855,-0.16,-0.1615,-0.0485,0.0805,-0.0335
-0.3285,-0.0565,0.2715,0.1925,-0.2995,0.1075,0.011,-0.0525,-0.037,-0.1845,-0.1595,-0.16,-0.0445,0.0805,-0.0315
-0.347,-0.0565,0.2905,0.2015,-0.3185,0.117,0.019,-0.044,-0.032,-0.18,-0.156,-0.157,-0.0455,0.082,-0.0355
-0.3705,-0.0625,0.3085,0.2165,-0.3395,0.123,0.0295,-0.031,-0.0195,-0.169,-0.1505,-0.1535,-0.049,0.0805,-0.04
-0.347,-0.061,0.286,0.204,-0.316,0.112,0.021,-0.037,-0.024,-0.1765,-0.161,-0.166,-0.0505,0.0805,-0.043
-0.316,-0.0535,0.2625,0.185,-0.289,0.1045,0.016,-0.0405,-0.0295,-0.179,-0.164,-0.1675,-0.0455,0.084,-0.042
-0.311,-0.052,0.259,0.1815,-0.285,0.1035,0.0205,-0.038,-0.027,-0.178,-0.1655,-0.168,-0.0545,0.091,-0.046
-0.3115,-0.056,0.2555,0.184,-0.2835,0.0995,0.0235,-0.0415,-0.0315,-0.185,-0.173,-0.177,-0.061,0.0935,-0.052
-0.312,-0.054,0.258,0.183,-0.285,0.1015,0.0305,-0.0375,-0.0275,-0.1785,-0.169,-0.175,-0.0575,0.096,-0.055
-0.325,-0.062,0.263,0.1935,-0.2935,0.1,0.025,-0.044,-0.033,-0.1835,-0.1735,-0.1805,-0.0605,0.0935,-0.056
-0.332,-0.0655,0.266,0.199,-0.299,0.1,0.021,-0.0495,-0.0375,-0.1865,-0.1755,-0.1815,-0.06,0.09,-0.054
-0.3245,-0.0545,0.27,0.1895,-0.297,0.1075,0.027,-0.043,-0.0305,-0.1805,-0.1685,-0.1745,-0.055,0.09,-0.054
-0.3125,-0.038,0.2745,0.175,-0.293,0.118,0.028,-0.0405,-0.024,-0.1715,-0.159,-0.1635,-0.0485,0.0935,-0.053
-0.3105,-0.038,0.2725,0.174,-0.2915,0.117,0.03,-0.039,-0.022,-0.168,-0.155,-0.1625,-0.052,0.095,-0.059
-0.3055,-0.031,0.2745,0.1685,-0.2895,0.1215,0.0375,-0.036,-0.026,-0.174,-0.1595,-0.165,-0.057,0.0935,-0.0625
-0.3125,-0.036,0.2765,0.1745,-0.294,0.12,0.0335,-0.038,-0.029,-0.1765,-0.1635,-0.1665,-0.053,0.098,-0.064
-0.337,-0.056,0.2805,0.1965,-0.3085,0.112,0.028,-0.0385,-0.0305,-0.179,-0.165,-0.172,-0.056,0.101,-0.0665
-0.3275,-0.038,0.2895,0.1825,-0.308,0.1255,0.0365,-0.0315,-0.023,-0.1745,-0.1605,-0.165,-0.0575,0.11,-0.068
-0.3235,-0.0455,0.278,0.1845,-0.3005,0.116,0.0305,-0.0415,-0.0335,-0.183,-0.168,-0.1715,-0.0555,0.107,-0.069
-0.3355,-0.0725,0.2635,0.204,-0.299,0.095,0.02,-0.0585,-0.05,-0.198,-0.181,-0.1825,-0.058,0.091,-0.063
-0.353,-0.0865,0.267,0.2195,-0.3095,0.09,0.0215,-0.0555,-0.047,-0.197,-0.1835,-0.186,-0.059,0.0905,-0.066
-0.3685,-0.0965,0.272,0.2325,-0.3205,0.0875,0.0235,-0.052,-0.0425,-0.1925,-0.1845,-0.1895,-0.057,0.089,-0.071
-0.3655,-0.0885,0.2775,0.227,-0.3215,0.094,0.0295,-0.047,-0.0315,-0.18,-0.1745,-0.1815,-0.0515,0.088,-0.0745
-0.3535,-0.074,0.2795,0.214,-0.3165,0.1025,0.0335,-0.035,-0.0185,-0.167,-0.164,-0.1745,-0.048,0.092,-0.078
-0.345,-0.064,0.2805,0.2045,-0.3125,0.108,0.034,-0.0315,-0.0155,-0.1665,-0.1665,-0.176,-0.0505,0.096,-0.0805
-0.335,-0.0565,0.279,0.196,-0.307,0.111,0.0365,-0.028,-0.013,-0.165,-0.1635,-0.1735,-0.0505,0.0995,-0.082
-0.347,-0.0735,0.2735,0.21,-0.31,0.1,0.0275,-0.035,-0.021,-0.1715,-0.1675,-0.178,-0.0495,0.1005,-0.0805
-0.3325,-0.0555,0.277,0.194,-0.3045,0.1105,0.0325,-0.027,-0.01,-0.163,-0.161,-0.172,-0.049,0.1055,-0.084
-0.281,-0.007,0.274,0.144,-0.277,0.133,0.0465,-0.008,0.0075,-0.1465,-0.1445,-0.157,-0.0475,0.106,-0.0875
-0.2735,0.0045,0.278,0.1345,-0.2755,0.141,0.0505,-0.005,0.014,-0.14,-0.1385,-0.1525,-0.049,0.1105,-0.092
-0.3145,-0.01,0.3045,0.1625,-0.3095,0.147,0.054,-0.004,0.018,-0.136,-0.135,-0.152,-0.0505,0.117,-0.097
-0.363,-0.0545,0.308,0.209,-0.3355,0.1265,0.039,-0.0165,0.0025,-0.1515,-0.15,-0.165,-0.0515,0.118,-0.0975
-0.3635,-0.0695,0.294,0.2165,-0.3285,0.1125,0.0335,-0.02,-0.0045,-0.1605,-0.1605,-0.1755,-0.053,0.1155,-0.098
-0.346,-0.053,0.293,0.1995,-0.3195,0.12,0.041,-0.017,-0.0005,-0.1605,-0.16,-0.1735,-0.052,0.1185,-0.0985
-0.3385,-0.0425,0.296,0.1905,-0.317,0.1265,0.049,-0.0165,0.0015,-0.157,-0.1565,-0.169,-0.0535,0.123,-0.104
-0.344,-0.0445,0.2995,0.194,-0.3215,0.1275,0.049,-0.0205,-0.0025,-0.1585,-0.158,-0.174,-0.0565,0.1245,-0.105
-0.3585,-0.0525,0.306,0.2055,-0.332,0.1265,0.05,-0.018,0.0025,-0.155,-0.1555,-0.1745,-0.0585,0.123,-0.11
-0.397,-0.081,0.316,0.239,-0.356,0.117,0.0495,-0.02,0.0005,-0.1555,-0.157,-0.179,-0.0575,0.119,-0.1165
-0.3815,-0.065,0.3165,0.2235,-0.3485,0.1255,0.0525,-0.0195,0.006,-0.147,-0.149,-0.172,-0.0565,0.1255,-0.12
-0.3285,-0.019,0.31,0.1735,-0.319,0.145,0.0705,0.0,0.023,-0.131,-0.136,-0.159,-0.06,0.131,-0.125
-0.3375,-0.033,0.3045,0.1855,-0.321,0.1355,0.0605,-0.0075,0.0115,-0.144,-0.1485,-0.1695,-0.0555,0.1295,-0.1205
-0.3485,-0.046,0.3025,0.1975,-0.3255,0.128,0.051,-0.0155,0.0045,-0.15,-0.1535,-0.1755,-0.057,0.1255,-0.123
-0.35,-0.041,0.309,0.1955,-0.329,0.1335,0.054,-0.0085,0.011,-0.1445,-0.15,-0.173,-0.059,0.1285,-0.1295
-0.3355,-0.0215,0.3135,0.1785,-0.3245,0.1455,0.0645,0.0025,0.0255,-0.129,-0.1385,-0.1635,-0.0575,0.1295,-0.1335
-0.3255,-0.0145,0.311,0.17,-0.3175,0.148,0.0695,0.001,0.026,-0.125,-0.137,-0.163,-0.059,0.1285,-0.132
-0.338,-0.032,0.306,0.185,-0.322,0.1365,0.0625,-0.003,0.02,-0.134,-0.1465,-0.1715,-0.057,0.1325,-0.1315
-0.344,-0.031,0.3125,0.1875,-0.328,0.1405,0.0665,0.004,0.0225,-0.134,-0.1465,-0.173,-0.0595,0.1425,-0.14
-0.3465,-0.0335,0.313,0.19,-0.329,0.1395,0.0685,-0.0025,0.017,-0.1385,-0.151,-0.177,-0.0615,0.144,-0.1405
-0.3515,-0.0405,0.311,0.196,-0.331,0.135,0.0715,-0.0065,0.0155,-0.139,-0.152,-0.1805,-0.062,0.1415,-0.141
-0.347,-0.0335,0.3135,0.1905,-0.33,0.14,0.0735,-0.002,0.019,-0.136,-0.1485,-0.1765,-0.062,0.1455,-0.143
-0.339,-0.0305,0.308,0.1845,-0.323,0.1385,0.07,-0.002,0.0215,-0.133,-0.1455,-0.174,-0.0565,0.1425,-0.1455
-0.338,-0.0285,0.3095,0.1835,-0.3235,0.14,0.076,-0.0005,0.0235,-0.129,-0.1415,-0.171,-0.056,0.144,-0.151
-0.347,-0.0315,0.3155,0.189,-0.331,0.142,0.082,-0.001,0.0225,-0.1305,-0.143,-0.1725,-0.0635,0.144,-0.152
-0.3555,-0.031,0.3245,0.1935,-0.34,0.1465,0.077,0.0005,0.0245,-0.131,-0.1445,-0.1745,-0.0655,0.1505,-0.1535
-0.364,-0.036,0.328,0.2,-0.346,0.146,0.0725,0.0035,0.029,-0.128,-0.1415,-0.172,-0.0595,0.152,-0.157
-0.3595,-0.033,0.3265,0.1965,-0.3425,0.1465,0.072,0.0005,0.028,-0.128,-0.14,-0.174,-0.0575,0.1515,-0.1585
-0.3495,-0.025,0.325,0.187,-0.337,0.15,0.0735,0.0005,0.0225,-0.132,-0.146,-0.178,-0.0625,0.154,-0.159
-0.36,-0.034,0.326,0.197,-0.3425,0.146,0.073,0.0005,0.023,-0.133,-0.1465,-0.1785,-0.0635,0.152,-0.1595
-0.3665,-0.0375,0.329,0.202,-0.3475,0.1455,0.0715,0.004,0.027,-0.127,-0.1405,-0.174,-0.0585,0.151,-0.164
-0.35,-0.0275,0.322,0.1885,-0.336,0.147,0.071,0.0105,0.0335,-0.121,-0.1355,-0.168,-0.052,0.1485,-0.163
-0.3455,-0.0245,0.3205,0.185,-0.333,0.148,0.083,0.015,0.0385,-0.1175,-0.133,-0.1675,-0.0525,0.1505,-0.1655
-0.355,-0.026,0.329,0.1905,-0.3415,0.1515,0.0905,0.0215,0.043,-0.11,-0.1285,-0.164,-0.0525,0.1525,-0.171
-0.3655,-0.023,0.3425,0.1945,-0.354,0.1595,0.086,0.02,0.048,-0.103,-0.1205,-0.158,-0.0485,0.156,-0.168
-0.39,-0.0405,0.3495,0.2155,-0.3695,0.1545,0.0895,0.01,0.0425,-0.109,-0.1285,-0.1665,-0.056,0.1625,-0.1755
-0.3765,-0.028,0.3485,0.202,-0.362,0.16,0.094,0.013,0.044,-0.107,-0.129,-0.168,-0.06,0.1645,-0.1805
-0.3625,-0.016,0.3465,0.1895,-0.3545,0.165,0.0955,0.023,0.0505,-0.0995,-0.1195,-0.1605,-0.058,0.1565,-0.1755
-0.3695,-0.0275,0.342,0.1985,-0.3555,0.157,0.0875,0.02,0.0485,-0.102,-0.122,-0.163,-0.058,0.1555,-0.1735
-0.3605,-0.025,0.3355,0.193,-0.3475,0.155,0.0815,0.015,0.046,-0.104,-0.1225,-0.1625,-0.0535,0.163,-0.172
-0.363,-0.023,0.34,0.193,-0.351,0.158,0.0875,0.019,0.051,-0.097,-0.118,-0.158,-0.0495,0.168,-0.1725
-0.3675,-0.02,0.3475,0.194,-0.3575,0.1635,0.082,0.0185,0.0505,-0.099,-0.12,-0.16,-0.054,0.1725,-0.173
-0.356,-0.0125,0.3435,0.184,-0.3495,0.1655,0.078,0.018,0.05,-0.101,-0.122,-0.161,-0.0555,0.1745,-0.1725
-0.3395,0.0,0.3395,0.1695,-0.339,0.1695,0.0855,0.0265,0.059,-0.095,-0.116,-0.1565,-0.049,0.1715,-0.1735
-0.363,-0.0165,0.3465,0.1895,-0.3545,0.1645,0.0785,0.0235,0.051,-0.103,-0.1245,-0.164,-0.053,0.1745,-0.173
-0.362,-0.019,0.343,0.1905,-0.3525,0.1615,0.076,0.018,0.0475,-0.105,-0.1275,-0.166,-0.0525,0.1825,-0.172
-0.3335,0.001,0.3345,0.1665,-0.334,0.1675,0.0795,0.017,0.0505,-0.103,-0.122,-0.161,-0.0505,0.1875,-0.17
-0.3425,-0.0075,0.335,0.1745,-0.3385,0.1635,0.073,0.0085,0.0435,-0.1085,-0.125,-0.163,-0.0495,0.1865,-0.168
-0.3485,-0.0155,0.333,0.182,-0.3405,0.1585,0.0685,0.0015,0.0385,-0.11,-0.1245,-0.1615,-0.0455,0.181,-0.1695
-0.3485,-0.0125,0.336,0.1805,-0.342,0.1615,0.069,0.0025,0.0385,-0.109,-0.123,-0.161,-0.047,0.1825,-0.1715
-0.3525,-0.0055,0.347,0.179,-0.3495,0.1705,0.0755,0.01,0.0485,-0.099,-0.116,-0.1575,-0.048,0.1925,-0.174
-0.3665,-0.0065,0.36,0.1865,-0.363,0.1765,0.0785,0.0095,0.052,-0.092,-0.112,-0.1555,-0.0495,0.1945,-0.1745
-0.3465,0.0085,0.355,0.169,-0.3505,0.1815,0.083,0.011,0.055,-0.0885,-0.11,-0.153,-0.047,0.1845,-0.173
-0.3285,0.0215,0.35,0.1535,-0.339,0.1855,0.087,0.0175,0.0615,-0.0845,-0.1065,-0.1495,-0.0465,0.1785,-0.175
-0.3455,0.0035,0.3485,0.171,-0.347,0.176,0.0785,0.011,0.054,-0.0915,-0.113,-0.1565,-0.047,0.1795,-0.1735
-0.3415,-0.003,0.339,0.1725,-0.34,0.1675,0.0745,0.007,0.05,-0.0945,-0.1145,-0.157,-0.0445,0.1835,-0.1725
-0.35,-0.0075,0.3425,0.1785,-0.346,0.1675,0.0725,0.009,0.0525,-0.0925,-0.114,-0.1545,-0.0425,0.1875,-0.1715
-0.3645,-0.0145,0.3505,0.1895,-0.3575,0.1675,0.0695,0.0065,0.0555,-0.0875,-0.1065,-0.1485,-0.038,0.189,-0.1675
-0.3595,-0.013,0.3465,0.186,-0.3525,0.1665,0.067,0.008,0.0585,-0.084,-0.098,-0.139,-0.0315,0.188,-0.1675
-0.3475,-0.005,0.3425,0.1765,-0.345,0.1685,0.067,0.017,0.059,-0.0865,-0.101,-0.14,-0.031,0.187,-0.168
-0.343,-0.001,0.342,0.172,-0.342,0.17,0.0665,0.0125,0.0605,-0.0835,-0.0995,-0.139,-0.028,0.187,-0.166
-0.339,0.001,0.3395,0.169,-0.339,0.17,0.0615,0.01,0.065,-0.0785,-0.0955,-0.136,-0.023,0.188,-0.1655
-0.343,-0.001,0.342,0.172,-0.3425,0.17,0.0595,0.01,0.0615,-0.082,-0.098,-0.1375,-0.0225,0.1945,-0.1645
-0.3485,-0.0065,0.3425,0.1775,-0.3455,0.1675,0.0585,0.0045,0.0535,-0.089,-0.103,-0.1415,-0.0245,0.1935,-0.1635
-0.3385,-0.0005,0.338,0.1695,-0.338,0.1685,0.055,0.0025,0.0505,-0.0935,-0.105,-0.1415,-0.025,0.1915,-0.1595
-0.338,-0.001,0.337,0.1695,-0.3375,0.168,0.0495,-0.001,0.047,-0.096,-0.1065,-0.141,-0.0225,0.1915,-0.1555
-0.3365,0.009,0.3455,0.164,-0.341,0.177,0.0515,0.002,0.051,-0.093,-0.1045,-0.14,-0.026,0.1955,-0.1575
-0.32,0.0305,0.3505,0.1445,-0.335,0.1905,0.058,0.007,0.0585,-0.085,-0.0955,-0.1315,-0.0245,0.1985,-0.154
-0.322,0.025,0.3465,0.1485,-0.334,0.1855,0.052,0.0075,0.062,-0.0785,-0.0915,-0.1295,-0.0195,0.1915,-0.152
-0.34,0.002,0.3415,0.169,-0.3405,0.1715,0.042,0.0005,0.056,-0.0845,-0.0975,-0.135,-0.0205,0.1925,-0.1555
-0.3345,0.0,0.3345,0.1675,-0.334,0.167,0.04,0.0005,0.053,-0.088,-0.1005,-0.1355,-0.018,0.193,-0.154
-0.323,0.005,0.328,0.159,-0.325,0.166,0.038,0.0005,0.0535,-0.0875,-0.0995,-0.133,-0.015,0.1865,-0.149
-0.3115,0.0135,0.325,0.149,-0.318,0.169,0.037,-0.004,0.052,-0.086,-0.0975,-0.129,-0.014,0.185,-0.1445
-0.2995,0.0245,0.324,0.1375,-0.3115,0.174,0.0415,-0.0005,0.0545,-0.081,-0.092,-0.123,-0.0125,0.1835,-0.1435
-0.3005,0.0255,0.3265,0.1375,-0.313,0.1755,0.043,0.0005,0.055,-0.0805,-0.091,-0.1225,-0.0125,0.1865,-0.145
-0.313,0.013,0.326,0.15,-0.3195,0.1695,0.0365,-0.007,0.0505,-0.084,-0.0955,-0.1275,-0.0125,0.186,-0.1435
-0.3235,0.003,0.3265,0.16,-0.325,0.1645,0.0275,-0.0135,0.046,-0.0885,-0.1005,-0.1305,-0.012,0.1865,-0.139
-0.3205,0.0035,0.324,0.1585,-0.322,0.1635,0.0285,-0.0095,0.0485,-0.084,-0.096,-0.126,-0.011,0.184,-0.1375
-0.3135,0.0125,0.326,0.1505,-0.3195,0.169,0.026,-0.0025,0.0535,-0.0805,-0.0905,-0.1215,-0.0085,0.18,-0.135
-0.302,0.0255,0.3275,0.1385,-0.3145,0.1765,0.02,-0.0045,0.0505,-0.084,-0.094,-0.1235,-0.0085,0.1855,-0.128
-0.295,0.022,0.3175,0.1365,-0.306,0.1695,0.015,-0.0155,0.042,-0.089,-0.099,-0.128,-0.009,0.1835,-0.1245
-0.301,0.018,0.319,0.1415,-0.3095,0.168,0.008,-0.02,0.0375,-0.094,-0.1025,-0.1315,-0.0065,0.188,-0.1235
-0.308,0.013,0.321,0.1475,-0.3145,0.167,0.008,-0.022,0.0355,-0.0985,-0.1075,-0.1365,-0.008,0.197,-0.12
-0.2995,0.0185,0.318,0.1405,-0.3085,0.1685,0.011,-0.0185,0.0385,-0.0955,-0.1055,-0.134,-0.0075,0.1965,-0.117
-0.2865,0.0225,0.309,0.132,-0.2975,0.1655,0.008,-0.0165,0.0435,-0.0875,-0.093,-0.12,0.0055,0.1865,-0.113
-0.288,0.014,0.302,0.137,-0.295,0.1575,0.0005,-0.027,0.038,-0.0885,-0.09,-0.113,0.016,0.186,-0.1085
-0.2955,0.005,0.3005,0.145,-0.2975,0.1525,-0.011,-0.035,0.027,-0.0975,-0.0955,-0.1155,0.022,0.187,-0.1005
-0.3085,-0.0125,0.2965,0.1605,-0.302,0.142,-0.0255,-0.0435,0.019,-0.1055,-0.1,-0.119,0.0315,0.1805,-0.0945
-0.3375,-0.0215,0.3155,0.1795,-0.326,0.1465,-0.0225,-0.0425,0.0245,-0.099,-0.0955,-0.1185,0.033,0.1815,-0.096
-0.3275,-0.014,0.3135,0.171,-0.3205,0.1495,-0.0165,-0.0335,0.036,-0.087,-0.085,-0.1105,0.039,0.1825,-0.097
-0.2815,0.0095,0.2905,0.136,-0.286,0.15,-0.018,-0.034,0.036,-0.086,-0.0805,-0.1035,0.0435,0.1795,-0.0895
-0.2755,0.019,0.2945,0.128,-0.2845,0.1565,-0.026,-0.0415,0.0295,-0.088,-0.0795,-0.1015,0.038,0.184,-0.081
-0.274,0.024,0.298,0.125,-0.2855,0.1605,-0.029,-0.036,0.038,-0.0805,-0.0745,-0.096,0.035,0.1885,-0.0825
-0.2565,0.045,0.3015,0.106,-0.279,0.173,-0.0225,-0.0235,0.0495,-0.069,-0.063,-0.0835,0.035,0.185,-0.0825
-0.2585,0.051,0.309,0.1035,-0.2835,0.18,-0.0295,-0.0215,0.054,-0.062,-0.0545,-0.0755,0.041,0.185,-0.0765
-0.257,0.0475,0.3045,0.1045,-0.2805,0.176,-0.034,-0.0225,0.053,-0.0615,-0.0555,-0.078,0.045,0.1845,-0.0735
-0.2485,0.042,0.2905,0.103,-0.269,0.166,-0.0365,-0.0265,0.0455,-0.0675,-0.0625,-0.081,0.046,0.1855,-0.068
-0.2385,0.0445,0.283,0.097,-0.2605,0.1635,-0.041,-0.0235,0.051,-0.064,-0.057,-0.0755,0.05,0.183,-0.0635
-0.237,0.046,0.283,0.0955,-0.26,0.164,-0.0445,-0.025,0.0515,-0.062,-0.053,-0.074,0.0535,0.1835,-0.062
-0.2425,0.038,0.2805,0.102,-0.261,0.159,-0.053,-0.0395,0.041,-0.071,-0.058,-0.074,0.0545,0.1845,-0.0575
-0.253,0.0315,0.2845,0.1105,-0.2685,0.158,-0.058,-0.038,0.0425,-0.071,-0.0575,-0.0725,0.0565,0.1815,-0.0565
-0.261,0.033,0.294,0.114,-0.277,0.163,-0.054,-0.033,0.0475,-0.065,-0.054,-0.07,0.0585,0.1935,-0.058
-0.2545,0.0415,0.296,0.1065,-0.275,0.1685,-0.053,-0.0385,0.047,-0.0625,-0.051,-0.0665,0.059,0.1975,-0.053
-0.2595,0.035,0.2945,0.112,-0.2765,0.1645,-0.0565,-0.0385,0.0495,-0.061,-0.0475,-0.0665,0.062,0.1865,-0.046
-0.266,0.023,0.289,0.1215,-0.2775,0.156,-0.0615,-0.043,0.0435,-0.067,-0.052,-0.0695,0.0635,0.182,-0.042
-0.258,0.0215,0.2795,0.118,-0.2685,0.1505,-0.071,-0.0535,0.033,-0.0735,-0.057,-0.07,0.0625,0.1745,-0.0375
-0.2465,0.0285,0.275,0.109,-0.2605,0.1515,-0.0755,-0.0495,0.036,-0.0715,-0.0535,-0.0645,0.0675,0.1685,-0.0335
-0.239,0.036,0.275,0.1015,-0.257,0.1555,-0.082,-0.044,0.039,-0.0715,-0.053,-0.0635,0.0685,0.1745,-0.0285
-0.234,0.036,0.27,0.099,-0.2515,0.1525,-0.081,-0.042,0.039,-0.0715,-0.0505,-0.0605,0.072,0.1755,-0.0275
-0.246,0.016,0.2625,0.115,-0.254,0.139,-0.0885,-0.0475,0.0305,-0.081,-0.0575,-0.065,0.076,0.169,-0.024
-0.253,0.0145,0.2675,0.119,-0.26,0.141,-0.0985,-0.052,0.0255,-0.0845,-0.0595,-0.065,0.0765,0.1655,-0.0175
-0.2775,-0.009,0.2685,0.1435,-0.2725,0.1295,-0.1005,-0.057,0.0215,-0.0865,-0.0625,-0.069,0.0795,0.1585,-0.0205
-0.266,-0.0215,0.2445,0.144,-0.255,0.111,-0.112,-0.0655,0.013,-0.0945,-0.0715,-0.0795,0.0805,0.1565,-0.0185
-0.206,0.0335,0.239,0.0865,-0.2225,0.136,-0.1,-0.05,0.027,-0.0805,-0.0565,-0.064,0.0815,0.1565,-0.013
-0.2325,0.032,0.264,0.1005,-0.248,0.1475,-0.09,-0.042,0.032,-0.0755,-0.0505,-0.0585,0.08,0.159,-0.009
-0.2545,0.009,0.2635,0.1225,-0.259,0.136,-0.096,-0.0565,0.0205,-0.0845,-0.0585,-0.065,0.0775,0.1565,-0.0075
-0.236,0.0165,0.252,0.11,-0.244,0.134,-0.1,-0.071,0.011,-0.0915,-0.0635,-0.068,0.076,0.152,-0.0025
-0.2205,0.0245,0.245,0.098,-0.2325,0.1345,-0.1025,-0.073,0.0085,-0.0935,-0.064,-0.0685,0.077,0.1535,0.0035
-0.2125,0.025,0.2375,0.094,-0.2245,0.131,-0.1055,-0.0735,0.0045,-0.0975,-0.067,-0.0695,0.0735,0.1505,0.006
-0.23,0.018,0.248,0.106,-0.2385,0.133,-0.104,-0.072,0.003,-0.101,-0.0685,-0.0705,0.073,0.154,0.0105
-0.226,0.02,0.246,0.103,-0.2355,0.133,-0.101,-0.0725,0.0035,-0.101,-0.066,-0.0685,0.076,0.1535,0.0085
-0.2335,0.0035,0.2365,0.115,-0.2345,0.12,-0.1125,-0.0845,-0.009,-0.111,-0.075,-0.0765,0.074,0.153,0.0115
-0.245,-0.003,0.242,0.1235,-0.243,0.1195,-0.1175,-0.0875,-0.0105,-0.112,-0.0745,-0.076,0.0775,0.1535,0.0185
-0.2405,0.005,0.2455,0.1175,-0.2425,0.125,-0.1165,-0.0845,-0.005,-0.1065,-0.069,-0.0695,0.0825,0.148,0.021
-0.238,0.0045,0.2425,0.1165,-0.24,0.1235,-0.1175,-0.0835,-0.006,-0.1075,-0.069,-0.0705,0.083,0.146,0.0225
-0.2305,0.0055,0.236,0.1125,-0.233,0.1205,-0.1175,-0.0835,-0.0075,-0.109,-0.071,-0.0715,0.0825,0.144,0.023
-0.227,0.003,0.23,0.112,-0.228,0.116,-0.1205,-0.086,-0.0115,-0.113,-0.075,-0.0745,0.08,0.1445,0.026
-0.216,0.0155,0.2315,0.1,-0.2235,0.1235,-0.1135,-0.08,-0.0065,-0.1085,-0.07,-0.072,0.0795,0.149,0.024
-0.207,0.025,0.232,0.091,-0.2195,0.1285,-0.1115,-0.0795,-0.008,-0.108,-0.0715,-0.072,0.077,0.1445,0.0275
-0.21,0.019,0.2295,0.0955,-0.2195,0.124,-0.1245,-0.0885,-0.0195,-0.1185,-0.082,-0.0795,0.073,0.1375,0.0355
-0.2095,0.0155,0.2245,0.097,-0.217,0.12,-0.1315,-0.092,-0.023,-0.1215,-0.0845,-0.082,0.076,0.1375,0.04
-0.2085,0.0115,0.22,0.0985,-0.214,0.1155,-0.1265,-0.09,-0.0225,-0.1215,-0.085,-0.081,0.078,0.1375,0.044
-0.2225,0.005,0.2275,0.1085,-0.225,0.116,-0.1205,-0.09,-0.024,-0.125,-0.0875,-0.083,0.075,0.14,0.041
-0.2305,-0.0005,0.2305,0.1155,-0.23,0.115,-0.128,-0.094,-0.025,-0.125,-0.0865,-0.0815,0.0765,0.1405,0.039
-0.227,-0.0065,0.2205,0.117,-0.2235,0.1065,-0.133,-0.093,-0.027,-0.1275,-0.0905,-0.0855,0.077,0.135,0.04
-0.2225,-0.0125,0.2095,0.1175,-0.216,0.0985,-0.1335,-0.099,-0.036,-0.1405,-0.101,-0.0945,0.0745,0.122,0.043
-0.221,-0.0085,0.2125,0.115,-0.2165,0.1015,-0.126,-0.093,-0.031,-0.135,-0.0945,-0.0865,0.0725,0.1205,0.0415
-0.2335,-0.009,0.2245,0.1215,-0.229,0.1075,-0.1275,-0.0905,-0.0295,-0.133,-0.0935,-0.0875,0.0685,0.1265,0.039
-0.239,-0.0115,0.227,0.125,-0.2325,0.1075,-0.1405,-0.101,-0.0395,-0.1435,-0.1015,-0.0905,0.0715,0.125,0.044
-0.25,-0.017,0.233,0.1335,-0.241,0.1075,-0.135,-0.0945,-0.034,-0.138,-0.093,-0.082,0.0735,0.122,0.0455
-0.259,-0.0275,0.2315,0.1435,-0.245,0.102,-0.1315,-0.0935,-0.0345,-0.14,-0.094,-0.083,0.074,0.1225,0.0465
-0.2595,-0.038,0.221,0.1485,-0.24,0.091,-0.1345,-0.102,-0.0445,-0.151,-0.103,-0.089,0.0755,0.1215,0.0495
-0.2385,-0.0185,0.22,0.1285,-0.229,0.1005,-0.125,-0.102,-0.045,-0.151,-0.101,-0.087,0.07,0.119,0.05
-0.225,-0.006,0.219,0.1155,-0.2215,0.106,-0.118,-0.103,-0.048,-0.154,-0.1035,-0.0885,0.0625,0.122,0.0485
-0.229,-0.0095,0.2195,0.1195,-0.224,0.105,-0.1215,-0.102,-0.045,-0.1515,-0.1015,-0.087,0.063,0.1205,0.0475
-0.2115,0.007,0.2185,0.1025,-0.2145,0.1125,-0.125,-0.096,-0.041,-0.1465,-0.098,-0.085,0.0635,0.117,0.053
-0.2085,0.006,0.2145,0.101,-0.211,0.11,-0.1245,-0.097,-0.0485,-0.157,-0.108,-0.0925,0.055,0.108,0.0555
-0.206,0.0075,0.2135,0.099,-0.209,0.11,-0.1175,-0.095,-0.049,-0.161,-0.111,-0.0945,0.052,0.107,0.0555
-0.2015,0.017,0.2185,0.092,-0.2095,0.1175,-0.108,-0.0915,-0.046,-0.1575,-0.109,-0.0925,0.0505,0.11,0.0565
-0.189,0.0335,0.2225,0.0775,-0.2055,0.128,-0.101,-0.085,-0.0415,-0.1525,-0.1035,-0.085,0.0495,0.109,0.056
-0.189,0.025,0.214,0.082,-0.201,0.1195,-0.1135,-0.0925,-0.051,-0.163,-0.11,-0.0895,0.0515,0.1035,0.061
-0.2215,-0.0085,0.2135,0.115,-0.217,0.1025,-0.1255,-0.1095,-0.068,-0.1795,-0.1245,-0.1,0.049,0.096,0.068
-0.2285,-0.007,0.2215,0.118,-0.225,0.107,-0.117,-0.1085,-0.0635,-0.1715,-0.1155,-0.092,0.053,0.105,0.068
-0.2035,0.014,0.2175,0.095,-0.2105,0.1155,-0.107,-0.0965,-0.051,-0.161,-0.107,-0.086,0.054,0.1015,0.0665
-0.198,0.016,0.2135,0.091,-0.2055,0.1145,-0.107,-0.094,-0.0495,-0.1635,-0.111,-0.0895,0.053,0.0995,0.0675
-0.2235,-0.004,0.2195,0.1135,-0.221,0.1075,-0.111,-0.101,-0.0585,-0.1715,-0.12,-0.101,0.0475,0.0995,0.063
-0.2555,-0.0385,0.217,0.147,-0.236,0.089,-0.1195,-0.113,-0.074,-0.188,-0.1405,-0.1205,0.0375,0.0975,0.0625
-0.2555,-0.0405,0.2145,0.148,-0.235,0.087,-0.1175,-0.1155,-0.077,-0.1925,-0.1425,-0.12,0.036,0.0995,0.067
-0.265,-0.041,0.224,0.153,-0.244,0.0915,-0.114,-0.1135,-0.0735,-0.188,-0.14,-0.122,0.034,0.0975,0.0625
-0.3025,-0.076,0.2265,0.189,-0.264,0.075,-0.1265,-0.127,-0.0875,-0.202,-0.1535,-0.1365,0.031,0.101,0.0595
-0.2985,-0.0695,0.2295,0.184,-0.264,0.0795,-0.122,-0.127,-0.089,-0.204,-0.1525,-0.132,0.0315,0.098,0.0645
-0.2665,-0.048,0.2185,0.1575,-0.2425,0.085,-0.117,-0.125,-0.0885,-0.204,-0.153,-0.132,0.0295,0.0945,0.0665
-0.2665,-0.0465,0.22,0.1565,-0.243,0.0865,-0.119,-0.1265,-0.0905,-0.2075,-0.155,-0.1335,0.027,0.1005,0.065
-0.2925,-0.051,0.241,0.1715,-0.2665,0.095,-0.112,-0.119,-0.0835,-0.202,-0.152,-0.1305,0.026,0.101,0.0645
-0.2735,-0.031,0.242,0.152,-0.2575,0.1055,-0.1025,-0.109,-0.0755,-0.1935,-0.1415,-0.1205,0.025,0.098,0.0645
-0.271,-0.027,0.244,0.149,-0.2575,0.1085,-0.0985,-0.1085,-0.0755,-0.1925,-0.139,-0.115,0.025,0.0975,0.0645
-0.2695,-0.0315,0.238,0.1505,-0.2535,0.103,-0.098,-0.109,-0.0805,-0.199,-0.1455,-0.1175,0.023,0.0905,0.0665
-0.253,-0.0315,0.221,0.1425,-0.2365,0.0945,-0.1055,-0.1165,-0.088,-0.209,-0.1505,-0.123,0.02,0.088,0.067
-0.244,-0.0585,0.1855,0.1515,-0.2145,0.063,-0.121,-0.132,-0.1015,-0.2225,-0.164,-0.1385,0.023,0.0835,0.063
-0.2215,-0.0525,0.169,0.137,-0.195,0.058,-0.12,-0.1285,-0.101,-0.2225,-0.1655,-0.1395,0.0275,0.08,0.061
-0.2505,-0.057,0.1935,0.154,-0.222,0.068,-0.113,-0.125,-0.097,-0.2205,-0.1635,-0.137,0.025,0.081,0.064
-0.2705,-0.062,0.2085,0.166,-0.239,0.073,-0.109,-0.1205,-0.0915,-0.215,-0.16,-0.1345,0.0235,0.0855,0.068
-0.264,-0.0575,0.2065,0.161,-0.235,0.0745,-0.11,-0.1165,-0.089,-0.214,-0.157,-0.132,0.0255,0.0855,0.072
-0.2585,-0.0585,0.2,0.1585,-0.229,0.0705,-0.1125,-0.1125,-0.084,-0.211,-0.156,-0.1335,0.026,0.0815,0.07
-0.2505,-0.0495,0.201,0.15,-0.2255,0.0755,-0.1055,-0.108,-0.078,-0.202,-0.15,-0.129,0.0245,0.0855,0.067
-0.2455,-0.0405,0.205,0.143,-0.225,0.082,-0.1005,-0.108,-0.076,-0.1985,-0.1465,-0.124,0.022,0.089,0.0685
-0.2425,-0.0375,0.2055,0.14,-0.2235,0.084,-0.1,-0.103,-0.071,-0.1945,-0.145,-0.123,0.0215,0.09,0.068
-0.2525,-0.0515,0.2005,0.152,-0.226,0.074,-0.0975,-0.105,-0.0745,-0.198,-0.1495,-0.129,0.022,0.0795,0.0695
-0.246,-0.049,0.197,0.1475,-0.221,0.0735,-0.1005,-0.11,-0.0805,-0.2025,-0.154,-0.1325,0.0195,0.079,0.0725
-0.2385,-0.04,0.1985,0.139,-0.2185,0.079,-0.0975,-0.107,-0.077,-0.2015,-0.1525,-0.131,0.016,0.089,0.07
-0.235,-0.0385,0.1965,0.1365,-0.2155,0.079,-0.095,-0.104,-0.079,-0.206,-0.155,-0.134,0.0105,0.088,0.069
-0.232,-0.0355,0.196,0.134,-0.214,0.08,-0.0985,-0.1075,-0.084,-0.2115,-0.1605,-0.138,0.009,0.087,0.0685
-0.244,-0.0415,0.203,0.143,-0.2235,0.0805,-0.099,-0.105,-0.081,-0.2095,-0.1585,-0.1345,0.0155,0.085,0.0665
-0.25,-0.0415,0.2085,0.146,-0.229,0.0835,-0.1,-0.1055,-0.0775,-0.2065,-0.155,-0.131,0.0195,0.084,0.0655
-0.258,-0.051,0.207,0.1545,-0.232,0.078,-0.106,-0.113,-0.0855,-0.2115,-0.159,-0.134,0.0235,0.085,0.069
-0.2735,-0.069,0.204,0.171,-0.2385,0.0675,-0.1105,-0.115,-0.0905,-0.216,-0.164,-0.1405,0.022,0.078,0.0725
-0.277,-0.0745,0.2025,0.176,-0.2395,0.0635,-0.106,-0.116,-0.0875,-0.2145,-0.165,-0.143,0.0165,0.0765,0.069
-0.2635,-0.0585,0.205,0.161,-0.234,0.073,-0.107,-0.1155,-0.084,-0.2095,-0.1575,-0.1355,0.0175,0.0815,0.07
-0.281,-0.0625,0.2185,0.172,-0.2495,0.0775,-0.1095,-0.114,-0.085,-0.2105,-0.157,-0.1345,0.0155,0.08,0.075
-0.308,-0.079,0.229,0.1935,-0.2685,0.075,-0.102,-0.1095,-0.085,-0.212,-0.1585,-0.135,0.013,0.0795,0.07
-0.328,-0.0945,0.234,0.211,-0.2805,0.0695,-0.102,-0.11,-0.0865,-0.2145,-0.161,-0.137,0.012,0.075,0.0675
-0.297,-0.0705,0.2265,0.184,-0.2615,0.0775,-0.101,-0.1095,-0.0835,-0.2105,-0.157,-0.131,0.01,0.0745,0.0685
-0.225,-0.005,0.22,0.115,-0.2225,0.1075,-0.0875,-0.09,-0.0655,-0.1935,-0.1395,-0.112,0.0075,0.075,0.067
-0.236,-0.0355,0.2,0.136,-0.218,0.082,-0.1075,-0.109,-0.085,-0.2125,-0.158,-0.1305,0.01,0.078,0.0705
-0.2265,-0.065,0.161,0.146,-0.1935,0.048,-0.1265,-0.132,-0.106,-0.232,-0.1785,-0.154,0.0135,0.0795,0.067
-0.2205,-0.044,0.1765,0.132,-0.198,0.066,-0.1095,-0.1205,-0.096,-0.221,-0.1675,-0.1445,0.0105,0.0685,0.063
-0.2415,-0.0425,0.199,0.1425,-0.22,0.078,-0.099,-0.114,-0.091,-0.2145,-0.1615,-0.1385,0.009,0.0705,0.0635
-0.2475,-0.0425,0.205,0.145,-0.226,0.081,-0.0945,-0.1105,-0.0875,-0.2125,-0.162,-0.1395,0.0045,0.0795,0.0605
-0.254,-0.0385,0.2155,0.1465,-0.2345,0.088,-0.0885,-0.1175,-0.0925,-0.217,-0.1645,-0.1425,-0.0005,0.089,0.061
-0.2385,-0.0305,0.208,0.1345,-0.223,0.0885,-0.086,-0.118,-0.0935,-0.2195,-0.1655,-0.14,-0.001,0.086,0.066
-0.2405,-0.0395,0.2005,0.14,-0.22,0.08,-0.09,-0.119,-0.099,-0.226,-0.17,-0.14,-0.0045,0.0705,0.0705
-0.2305,-0.0355,0.195,0.133,-0.2125,0.0795,-0.0915,-0.1185,-0.0965,-0.223,-0.167,-0.1385,0.0,0.0655,0.071
-0.267,-0.0335,0.2335,0.1505,-0.25,0.1,-0.0785,-0.101,-0.0765,-0.2035,-0.1475,-0.121,0.0075,0.066,0.067
-0.2905,-0.0555,0.2345,0.173,-0.2625,0.089,-0.086,-0.1075,-0.0815,-0.2095,-0.155,-0.13,0.0075,0.0655,0.0675
-0.2605,-0.072,0.1885,0.1665,-0.2245,0.058,-0.108,-0.124,-0.097,-0.2265,-0.174,-0.149,0.0115,0.0685,0.07
-0.2815,-0.0845,0.197,0.183,-0.239,0.056,-0.1105,-0.1255,-0.1005,-0.229,-0.177,-0.152,0.01,0.0685,0.069
-0.295,-0.0835,0.212,0.1895,-0.2535,0.064,-0.1065,-0.1225,-0.0975,-0.226,-0.174,-0.1465,0.01,0.075,0.07
-0.289,-0.0715,0.217,0.18,-0.253,0.0725,-0.099,-0.1165,-0.0935,-0.2245,-0.17,-0.1425,0.0095,0.082,0.0685
-0.298,-0.0695,0.2285,0.1835,-0.263,0.0795,-0.088,-0.106,-0.088,-0.22,-0.1665,-0.1385,0.0055,0.078,0.0645
-0.3035,-0.068,0.2355,0.186,-0.2695,0.0835,-0.0885,-0.109,-0.0855,-0.2155,-0.163,-0.135,0.009,0.0775,0.0635
-0.2795,-0.0635,0.216,0.1715,-0.2475,0.076,-0.1015,-0.128,-0.0965,-0.2225,-0.1695,-0.141,0.0105,0.0715,0.0675
-0.2715,-0.062,0.2095,0.1665,-0.24,0.0735,-0.0985,-0.1225,-0.0925,-0.219,-0.169,-0.143,0.0105,0.0725,0.065
-0.2765,-0.0635,0.213,0.17,-0.2445,0.0745,-0.094,-0.121,-0.091,-0.2205,-0.172,-0.148,0.0065,0.08,0.061
-0.2605,-0.0515,0.209,0.156,-0.2345,0.0785,-0.092,-0.1225,-0.092,-0.2215,-0.1725,-0.145,0.001,0.078,0.0635
-0.261,-0.043,0.218,0.152,-0.2395,0.087,-0.086,-0.115,-0.086,-0.2135,-0.1645,-0.1385,-0.0005,0.079,0.062
-0.287,-0.0605,0.227,0.174,-0.257,0.083,-0.0905,-0.122,-0.0925,-0.2175,-0.1685,-0.143,0.0,0.084,0.063
-0.297,-0.07,0.2265,0.1835,-0.2615,0.078,-0.095,-0.1235,-0.0945,-0.222,-0.173,-0.1455,0.0025,0.0895,0.067
-0.283,-0.073,0.21,0.178,-0.2465,0.0685,-0.0945,-0.124,-0.0995,-0.2295,-0.18,-0.1495,0.004,0.0855,0.068
-0.284,-0.074,0.2105,0.179,-0.247,0.068,-0.094,-0.124,-0.1,-0.23,-0.18,-0.149,0.0035,0.0785,0.064
-0.291,-0.074,0.217,0.1825,-0.2535,0.071,-0.0925,-0.12,-0.091,-0.2195,-0.1705,-0.1425,0.0095,0.077,0.0615
-0.2965,-0.0785,0.2175,0.1875,-0.2565,0.069,-0.0935,-0.1255,-0.097,-0.2255,-0.1745,-0.1455,0.009,0.0765,0.0655
-0.301,-0.0785,0.2225,0.1895,-0.2615,0.0715,-0.098,-0.129,-0.1025,-0.2305,-0.1775,-0.147,0.009,0.0805,0.0665
-0.3015,-0.077,0.225,0.1895,-0.263,0.0735,-0.0935,-0.1285,-0.1015,-0.2285,-0.176,-0.146,0.004,0.086,0.065
-0.309,-0.0795,0.2295,0.194,-0.269,0.075,-0.0885,-0.1285,-0.102,-0.228,-0.1765,-0.1485,-0.0035,0.0875,0.063
-0.294,-0.066,0.228,0.18,-0.2605,0.081,-0.084,-0.124,-0.0955,-0.221,-0.1675,-0.1395,0.0055,0.0875,0.0625
-0.272,-0.051,0.221,0.1615,-0.2465,0.085,-0.0865,-0.124,-0.0975,-0.223,-0.1685,-0.138,0.007,0.0845,0.068
-0.2805,-0.0645,0.216,0.1725,-0.248,0.0755,-0.0955,-0.1305,-0.106,-0.2335,-0.1785,-0.148,0.004,0.0785,0.071
-0.2725,-0.057,0.2155,0.165,-0.244,0.079,-0.097,-0.1265,-0.1015,-0.229,-0.174,-0.145,0.0045,0.08,0.0695
-0.269,-0.0575,0.2115,0.1635,-0.24,0.0765,-0.0965,-0.128,-0.105,-0.233,-0.1795,-0.1495,-0.0005,0.0825,0.071
-0.282,-0.068,0.2145,0.175,-0.248,0.073,-0.09,-0.1315,-0.111,-0.2385,-0.1845,-0.1555,-0.0045,0.0865,0.067
-0.2945,-0.071,0.2235,0.183,-0.2585,0.076,-0.089,-0.1345,-0.1095,-0.233,-0.1785,-0.15,-0.002,0.09,0.0635
-0.3225,-0.097,0.225,0.2095,-0.2735,0.0635,-0.0935,-0.1465,-0.1205,-0.2435,-0.19,-0.1625,-0.006,0.084,0.064
-0.32,-0.0855,0.2345,0.203,-0.277,0.074,-0.089,-0.1435,-0.118,-0.24,-0.189,-0.1645,-0.011,0.0875,0.064
-0.285,-0.049,0.236,0.167,-0.2605,0.093,-0.077,-0.133,-0.107,-0.2295,-0.1785,-0.1545,-0.012,0.089,0.062
-0.274,-0.0395,0.2345,0.157,-0.254,0.097,-0.0765,-0.1315,-0.1105,-0.2325,-0.18,-0.154,-0.0115,0.086,0.065
-0.284,-0.054,0.23,0.169,-0.257,0.088,-0.0915,-0.138,-0.118,-0.2385,-0.186,-0.1595,-0.009,0.083,0.0675
-0.2915,-0.0595,0.232,0.1755,-0.2615,0.086,-0.0875,-0.134,-0.1145,-0.238,-0.1875,-0.16,-0.0125,0.0835,0.0595
-0.3015,-0.0625,0.239,0.182,-0.27,0.088,-0.0905,-0.1285,-0.106,-0.227,-0.1785,-0.151,-0.007,0.0845,0.0605
-0.291,-0.0565,0.2345,0.174,-0.2625,0.089,-0.0975,-0.127,-0.101,-0.223,-0.1725,-0.146,-0.002,0.0825,0.064
-0.28,-0.052,0.228,0.166,-0.254,0.088,-0.096,-0.1205,-0.101,-0.228,-0.1785,-0.1515,-0.0035,0.0805,0.067
-0.291,-0.0695,0.2215,0.1805,-0.256,0.076,-0.1005,-0.125,-0.106,-0.235,-0.185,-0.158,-0.002,0.077,0.0675
-0.306,-0.074,0.232,0.19,-0.2685,0.0785,-0.0955,-0.1235,-0.1005,-0.229,-0.181,-0.156,-0.001,0.0845,0.0615
-0.314,-0.072,0.242,0.193,-0.2775,0.0845,-0.092,-0.125,-0.0985,-0.2255,-0.178,-0.154,0.0005,0.081,0.062
-0.2965,-0.063,0.234,0.18,-0.265,0.085,-0.091,-0.1285,-0.1015,-0.228,-0.1775,-0.1515,0.0015,0.076,0.066
-0.2835,-0.05,0.234,0.167,-0.2585,0.0915,-0.0885,-0.123,-0.096,-0.2235,-0.1735,-0.1465,0.003,0.0875,0.069
-0.2825,-0.041,0.2415,0.162,-0.2615,0.1,-0.0845,-0.12,-0.092,-0.2185,-0.168,-0.1425,0.0025,0.095,0.0635
-0.2795,-0.035,0.2445,0.157,-0.262,0.1045,-0.082,-0.1205,-0.0895,-0.2145,-0.164,-0.14,-0.002,0.094,0.057
-0.2765,-0.0335,0.243,0.155,-0.2595,0.1045,-0.09,-0.1265,-0.0935,-0.218,-0.167,-0.1425,-0.0045,0.0905,0.0595
-0.267,-0.0285,0.238,0.148,-0.2525,0.1045,-0.0955,-0.124,-0.093,-0.2175,-0.1665,-0.141,-0.0035,0.0895,0.063
-0.2695,-0.0235,0.246,0.1465,-0.2575,0.111,-0.088,-0.1185,-0.089,-0.213,-0.1645,-0.14,-0.004,0.087,0.0625
-0.2645,-0.013,0.251,0.139,-0.2575,0.119,-0.0805,-0.1145,-0.086,-0.2105,-0.161,-0.137,-0.007,0.0895,0.0565
-0.264,-0.0155,0.2485,0.14,-0.256,0.116,-0.0785,-0.113,-0.0835,-0.208,-0.1595,-0.1365,-0.007,0.094,0.0545
-0.2815,-0.027,0.254,0.154,-0.2675,0.1135,-0.0785,-0.1185,-0.089,-0.214,-0.164,-0.14,-0.008,0.0935,0.0555
-0.287,-0.034,0.253,0.16,-0.2695,0.109,-0.081,-0.1235,-0.0945,-0.2185,-0.1685,-0.1435,-0.01,0.0905,0.056
-0.2955,-0.047,0.2485,0.1715,-0.272,0.1005,-0.0835,-0.1285,-0.1,-0.224,-0.175,-0.1505,-0.0095,0.09,0.056
-0.2995,-0.0465,0.253,0.173,-0.276,0.103,-0.0815,-0.128,-0.1005,-0.223,-0.175,-0.1515,-0.015,0.088,0.0535
-0.2995,-0.039,0.26,0.1695,-0.2795,0.11,-0.0725,-0.1215,-0.095,-0.2175,-0.1695,-0.1475,-0.0175,0.0855,0.055
-0.304,-0.038,0.2665,0.171,-0.285,0.114,-0.064,-0.116,-0.0905,-0.2145,-0.1665,-0.145,-0.017,0.0925,0.0545
-0.307,-0.0425,0.264,0.1745,-0.285,0.1105,-0.0645,-0.1195,-0.093,-0.219,-0.1715,-0.152,-0.021,0.095,0.055
-0.2945,-0.046,0.248,0.17,-0.271,0.101,-0.0755,-0.1325,-0.1045,-0.229,-0.178,-0.156,-0.017,0.09,0.059
-0.2885,-0.046,0.2425,0.1675,-0.2655,0.098,-0.0795,-0.136,-0.1095,-0.2335,-0.18,-0.1545,-0.015,0.091,0.062
-0.3305,-0.0725,0.258,0.2015,-0.294,0.0925,-0.0805,-0.132,-0.1095,-0.237,-0.1845,-0.1575,-0.0165,0.088,0.0605
-0.3475,-0.071,0.2765,0.2095,-0.312,0.1025,-0.0805,-0.1275,-0.1055,-0.2315,-0.1795,-0.1525,-0.016,0.0845,0.059
-0.337,-0.053,0.284,0.195,-0.31,0.115,-0.075,-0.124,-0.101,-0.2265,-0.175,-0.148,-0.016,0.088,0.0595
-0.3665,-0.086,0.2805,0.226,-0.323,0.097,-0.087,-0.1375,-0.116,-0.2395,-0.189,-0.161,-0.0155,0.0865,0.061
-0.3095,-0.0535,0.256,0.1815,-0.2825,0.101,-0.0875,-0.1385,-0.116,-0.237,-0.1865,-0.158,-0.0155,0.0825,0.0635
-0.2275,-0.0125,0.215,0.12,-0.221,0.101,-0.0875,-0.139,-0.115,-0.2365,-0.1835,-0.156,-0.0135,0.083,0.063
-0.266,-0.0425,0.223,0.1545,-0.2445,0.09,-0.0975,-0.15,-0.127,-0.246,-0.1925,-0.1655,-0.0105,0.0905,0.062
-0.3095,-0.0645,0.245,0.187,-0.277,0.09,-0.091,-0.148,-0.123,-0.244,-0.191,-0.163,-0.0095,0.091,0.062
-0.323,-0.0725,0.25,0.1975,-0.286,0.0885,-0.085,-0.143,-0.1165,-0.2395,-0.188,-0.161,-0.011,0.0835,0.0585
-0.3335,-0.073,0.2605,0.203,-0.2965,0.0935,-0.08,-0.1395,-0.113,-0.2335,-0.184,-0.1575,-0.0095,0.0825,0.059
-0.3325,-0.075,0.258,0.204,-0.295,0.0915,-0.085,-0.149,-0.1195,-0.2385,-0.1875,-0.161,-0.0125,0.0855,0.0575
-0.328,-0.073,0.255,0.2005,-0.291,0.091,-0.087,-0.151,-0.121,-0.238,-0.189,-0.1625,-0.0145,0.0855,0.056
-0.326,-0.068,0.2575,0.197,-0.2915,0.0945,-0.083,-0.145,-0.1155,-0.235,-0.1845,-0.159,-0.0125,0.0885,0.0605
-0.3075,-0.0565,0.2515,0.182,-0.2795,0.097,-0.0825,-0.1425,-0.115,-0.234,-0.1825,-0.157,-0.013,0.0905,0.0605
-0.292,-0.046,0.2455,0.169,-0.2685,0.0995,-0.0825,-0.139,-0.115,-0.232,-0.1815,-0.1555,-0.0135,0.0875,0.0615
-0.29,-0.0385,0.251,0.164,-0.27,0.106,-0.085,-0.1365,-0.1145,-0.2325,-0.1815,-0.156,-0.017,0.0895,0.061
-0.2855,-0.0295,0.2555,0.1575,-0.27,0.1125,-0.078,-0.1295,-0.1075,-0.2265,-0.1765,-0.151,-0.0165,0.094,0.0605
-0.283,-0.0325,0.2505,0.158,-0.2665,0.1085,-0.0765,-0.131,-0.1075,-0.226,-0.1745,-0.15,-0.016,0.0945,0.0595
-0.2775,-0.036,0.2415,0.1565,-0.2595,0.1025,-0.081,-0.135,-0.112,-0.2335,-0.1815,-0.1545,-0.0195,0.0955,0.059
-0.2925,-0.0425,0.25,0.1675,-0.271,0.103,-0.0805,-0.137,-0.113,-0.234,-0.1815,-0.155,-0.0175,0.0955,0.06
-0.3125,-0.0515,0.261,0.182,-0.2865,0.1045,-0.0805,-0.143,-0.115,-0.2305,-0.1775,-0.153,-0.0135,0.0915,0.059
-0.2985,-0.042,0.2565,0.17,-0.277,0.107,-0.0795,-0.139,-0.111,-0.229,-0.1765,-0.15,-0.0115,0.0875,0.0595
-0.3025,-0.0485,0.254,0.1755,-0.278,0.1025,-0.08,-0.1395,-0.114,-0.2335,-0.181,-0.155,-0.0115,0.09,0.059
-0.3105,-0.0535,0.2565,0.182,-0.2835,0.1015,-0.081,-0.1445,-0.1185,-0.2365,-0.1835,-0.158,-0.016,0.092,0.061
-0.2925,-0.031,0.2615,0.162,-0.277,0.115,-0.0715,-0.1335,-0.108,-0.2285,-0.1745,-0.1495,-0.0185,0.095,0.0605
-0.2825,-0.0165,0.2655,0.1495,-0.2735,0.1245,-0.0645,-0.125,-0.101,-0.221,-0.1685,-0.145,-0.018,0.1025,0.0545
-0.2775,-0.0145,0.263,0.146,-0.27,0.124,-0.0735,-0.1315,-0.109,-0.2305,-0.176,-0.15,-0.0195,0.098,0.0565
-0.3015,-0.037,0.2645,0.169,-0.283,0.1135,-0.081,-0.138,-0.115,-0.238,-0.181,-0.1565,-0.018,0.091,0.057
-0.32,-0.0615,0.258,0.1905,-0.2885,0.098,-0.089,-0.1455,-0.1235,-0.243,-0.188,-0.1655,-0.017,0.0905,0.057
-0.3065,-0.056,0.2505,0.181,-0.2785,0.097,-0.0905,-0.1495,-0.1245,-0.2445,-0.188,-0.165,-0.0155,0.0895,0.061
-0.2955,-0.0365,0.259,0.166,-0.277,0.111,-0.079,-0.139,-0.112,-0.2325,-0.177,-0.154,-0.0155,0.0975,0.059
-0.2955,-0.028,0.268,0.162,-0.2815,0.12,-0.0745,-0.1315,-0.105,-0.226,-0.1715,-0.149,-0.0155,0.099,0.056
-0.308,-0.037,0.2715,0.1725,-0.2895,0.117,-0.0775,-0.1335,-0.1075,-0.2275,-0.1725,-0.149,-0.0105,0.0935,0.058
-0.312,-0.043,0.269,0.1775,-0.2905,0.1125,-0.0835,-0.136,-0.1135,-0.232,-0.175,-0.1505,-0.0115,0.094,0.0595
-0.295,-0.0255,0.2695,0.1605,-0.282,0.1215,-0.0835,-0.134,-0.108,-0.2235,-0.1665,-0.142,-0.011,0.0925,0.06
-0.297,-0.0265,0.2705,0.162,-0.2835,0.1215,-0.0875,-0.1365,-0.111,-0.226,-0.1705,-0.1455,-0.0125,0.09,0.0635
-0.305,-0.0405,0.2645,0.173,-0.2845,0.1115,-0.094,-0.1395,-0.1165,-0.2335,-0.1775,-0.154,-0.0155,0.0875,0.066
-0.2895,-0.0305,0.2595,0.16,-0.274,0.114,-0.0935,-0.1355,-0.115,-0.235,-0.1785,-0.153,-0.0145,0.093,0.069
-0.2775,-0.0225,0.2545,0.15,-0.2655,0.116,-0.093,-0.1365,-0.117,-0.2385,-0.181,-0.1545,-0.0135,0.1005,0.0715
-0.2695,-0.0215,0.248,0.1455,-0.2585,0.113,-0.09,-0.1405,-0.119,-0.2365,-0.178,-0.1535,-0.0155,0.0935,0.0635
-0.2765,-0.03,0.2465,0.1535,-0.2615,0.108,-0.092,-0.145,-0.128,-0.2445,-0.1835,-0.1575,-0.0205,0.0905,0.064
-0.2875,-0.0415,0.246,0.1645,-0.2665,0.102,-0.0965,-0.1515,-0.1365,-0.2545,-0.1915,-0.1655,-0.019,0.102,0.0715
-0.291,-0.0375,0.253,0.1645,-0.2715,0.1075,-0.091,-0.1445,-0.126,-0.2435,-0.184,-0.159,-0.014,0.102,0.0675
-0.3,-0.042,0.258,0.171,-0.2785,0.108,-0.081,-0.137,-0.116,-0.2355,-0.177,-0.154,-0.011,0.098,0.0635
-0.33,-0.073,0.257,0.2015,-0.293,0.0915,-0.0905,-0.145,-0.1245,-0.243,-0.1825,-0.1605,-0.0075,0.099,0.0635
-0.3485,-0.0865,0.262,0.2175,-0.305,0.0875,-0.097,-0.1495,-0.126,-0.244,-0.1795,-0.156,-0.0065,0.093,0.0645
-0.3315,-0.0755,0.256,0.2035,-0.2935,0.09,-0.0975,-0.154,-0.13,-0.247,-0.1825,-0.1575,-0.009,0.0795,0.0675
-0.329,-0.074,0.2555,0.2015,-0.292,0.0905,-0.0955,-0.15,-0.127,-0.245,-0.1815,-0.157,-0.0085,0.078,0.066
-0.3245,-0.066,0.2585,0.1955,-0.2915,0.096,-0.0885,-0.141,-0.117,-0.2365,-0.1745,-0.151,-0.005,0.0915,0.063
-0.3215,-0.0735,0.248,0.1975,-0.2845,0.087,-0.101,-0.1515,-0.1275,-0.2465,-0.184,-0.161,-0.006,0.0925,0.067
-0.3255,-0.086,0.2395,0.2055,-0.282,0.0765,-0.1055,-0.1555,-0.132,-0.247,-0.1865,-0.1645,-0.007,0.0805,0.066
-0.3275,-0.0875,0.24,0.2075,-0.2835,0.076,-0.1005,-0.149,-0.1235,-0.238,-0.179,-0.1585,-0.0065,0.077,0.0645
-0.3235,-0.0865,0.237,0.205,-0.28,0.075,-0.095,-0.1455,-0.1235,-0.24,-0.181,-0.162,-0.01,0.0795,0.0645
-0.3225,-0.087,0.2355,0.2045,-0.2785,0.074,-0.097,-0.1485,-0.126,-0.2425,-0.185,-0.166,-0.0135,0.077,0.0645
-0.329,-0.082,0.247,0.2055,-0.288,0.0825,-0.094,-0.145,-0.1205,-0.2365,-0.1775,-0.158,-0.0135,0.0735,0.065
-0.325,-0.0755,0.249,0.2005,-0.287,0.0865,-0.0885,-0.1405,-0.12,-0.235,-0.1745,-0.1545,-0.0125,0.073,0.066
-0.3235,-0.088,0.2355,0.2055,-0.279,0.0735,-0.096,-0.146,-0.129,-0.245,-0.184,-0.162,-0.0145,0.069,0.0705
-0.307,-0.078,0.229,0.192,-0.2675,0.0755,-0.089,-0.143,-0.128,-0.246,-0.1825,-0.1585,-0.012,0.0705,0.0695
-0.308,-0.0745,0.2335,0.191,-0.2705,0.079,-0.0925,-0.143,-0.127,-0.245,-0.18,-0.1565,-0.009,0.08,0.073
-0.324,-0.079,0.2455,0.2015,-0.2845,0.083,-0.0955,-0.142,-0.1225,-0.24,-0.176,-0.154,-0.0085,0.082,0.072
-0.321,-0.078,0.243,0.1995,-0.282,0.082,-0.0975,-0.1435,-0.122,-0.238,-0.174,-0.1535,-0.0045,0.0785,0.073
-0.317,-0.07,0.247,0.1935,-0.282,0.088,-0.1055,-0.1515,-0.1295,-0.245,-0.181,-0.1615,-0.006,0.082,0.0755
-0.332,-0.0765,0.2555,0.204,-0.2935,0.0895,-0.0995,-0.149,-0.127,-0.243,-0.181,-0.1635,-0.0095,0.0865,0.0675
-0.322,-0.0875,0.2345,0.205,-0.278,0.073,-0.0915,-0.14,-0.118,-0.235,-0.1725,-0.156,-0.0105,0.0795,0.0675
-0.2935,-0.069,0.2245,0.181,-0.259,0.0775,-0.0825,-0.13,-0.109,-0.228,-0.165,-0.147,-0.0085,0.074,0.0705
-0.3145,-0.0855,0.229,0.2,-0.2715,0.0715,-0.0905,-0.14,-0.121,-0.24,-0.1755,-0.156,-0.01,0.076,0.073
-0.3185,-0.0855,0.233,0.202,-0.2755,0.0735,-0.0955,-0.149,-0.131,-0.248,-0.1815,-0.161,-0.013,0.081,0.075
-0.3005,-0.0725,0.2285,0.1865,-0.2645,0.0775,-0.094,-0.1485,-0.1325,-0.2495,-0.1825,-0.162,-0.012,0.0815,0.0775
-0.2875,-0.074,0.2135,0.1805,-0.25,0.0695,-0.0985,-0.1505,-0.134,-0.2525,-0.1855,-0.1655,-0.013,0.076,0.079
-0.274,-0.0665,0.2075,0.1705,-0.2405,0.07,-0.1005,-0.15,-0.1325,-0.251,-0.1845,-0.1655,-0.0125,0.0775,0.079
-0.303,-0.081,0.222,0.192,-0.262,0.07,-0.096,-0.1425,-0.1285,-0.2475,-0.1835,-0.1635,-0.012,0.076,0.0755
-0.335,-0.0905,0.244,0.2125,-0.2895,0.0765,-0.0895,-0.138,-0.1235,-0.242,-0.1775,-0.16,-0.0155,0.0705,0.072
-0.343,-0.0755,0.268,0.209,-0.3055,0.096,-0.079,-0.1365,-0.118,-0.234,-0.168,-0.15,-0.017,0.0815,0.074
-0.3995,-0.0615,0.338,0.2305,-0.3685,0.138,-0.051,-0.1115,-0.096,-0.2125,-0.148,-0.1305,-0.0205,0.088,0.075
-0.381,-0.0595,0.322,0.2205,-0.3515,0.131,-0.053,-0.1175,-0.1025,-0.222,-0.159,-0.142,-0.029,0.078,0.075
-0.334,-0.0595,0.2745,0.197,-0.304,0.1075,-0.0675,-0.125,-0.1125,-0.2315,-0.1695,-0.151,-0.028,0.074,0.0745
-0.3395,-0.0705,0.269,0.205,-0.304,0.099,-0.0745,-0.1235,-0.112,-0.231,-0.1685,-0.15,-0.024,0.066,0.077
-0.271,-0.0875,0.1835,0.1795,-0.227,0.0475,-0.1065,-0.159,-0.1465,-0.2665,-0.2015,-0.182,-0.022,0.0615,0.0795
-0.3115,-0.1175,0.194,0.2145,-0.2525,0.038,-0.1135,-0.1655,-0.152,-0.273,-0.203,-0.1825,-0.0145,0.0675,0.0835
-0.3195,-0.0915,0.228,0.2055,-0.2735,0.068,-0.097,-0.1435,-0.1215,-0.2405,-0.17,-0.151,-0.004,0.0625,0.0835
-0.219,-0.0515,0.1675,0.1355,-0.193,0.0575,-0.0995,-0.1455,-0.1245,-0.2435,-0.1745,-0.159,-0.005,0.0595,0.075
-0.2505,-0.0845,0.1665,0.1675,-0.2085,0.041,-0.1095,-0.1605,-0.141,-0.2615,-0.193,-0.1755,-0.012,0.064,0.0725
-0.2975,-0.1115,0.1855,0.2045,-0.2415,0.037,-0.1135,-0.166,-0.1405,-0.2605,-0.194,-0.1765,-0.011,0.0595,0.076
-0.2995,-0.106,0.194,0.203,-0.2465,0.0435,-0.1105,-0.1595,-0.1355,-0.254,-0.187,-0.1705,-0.007,0.0675,0.0775
-0.3015,-0.101,0.2005,0.2015,-0.2505,0.0495,-0.1095,-0.155,-0.1275,-0.246,-0.1785,-0.1645,-0.003,0.0745,0.0795
-0.3145,-0.1175,0.197,0.216,-0.255,0.0395,-0.1215,-0.165,-0.137,-0.2565,-0.188,-0.1735,-0.003,0.0765,0.0815
-0.3275,-0.109,0.2185,0.2185,-0.2725,0.0545,-0.1205,-0.16,-0.133,-0.2505,-0.181,-0.167,-0.006,0.0805,0.0795
-0.314,-0.0885,0.2255,0.201,-0.2695,0.068,-0.1085,-0.1505,-0.1255,-0.2425,-0.1735,-0.16,-0.012,0.0615,0.0815
-0.2995,-0.083,0.216,0.1915,-0.2575,0.066,-0.1075,-0.1505,-0.129,-0.2485,-0.1795,-0.1635,-0.0145,0.057,0.082
-0.3085,-0.09,0.2185,0.1995,-0.263,0.064,-0.1085,-0.1535,-0.1315,-0.2485,-0.1795,-0.163,-0.011,0.0735,0.083
-0.3215,-0.101,0.221,0.2115,-0.271,0.0595,-0.1035,-0.159,-0.1365,-0.2525,-0.184,-0.1685,-0.012,0.0825,0.0835
-0.315,-0.0975,0.2175,0.206,-0.266,0.06,-0.1005,-0.158,-0.1355,-0.2525,-0.184,-0.1685,-0.0155,0.0835,0.0815
-0.3115,-0.0985,0.213,0.205,-0.2625,0.057,-0.1005,-0.162,-0.142,-0.258,-0.188,-0.1695,-0.0135,0.0775,0.085
-0.3155,-0.101,0.2145,0.2085,-0.265,0.0565,-0.097,-0.1605,-0.1425,-0.2595,-0.192,-0.1735,-0.0165,0.067,0.0835
-0.3175,-0.104,0.2135,0.2105,-0.265,0.0545,-0.0945,-0.1585,-0.1445,-0.2625,-0.1965,-0.1765,-0.019,0.064,0.0785
-0.3135,-0.103,0.2105,0.2085,-0.2615,0.0535,-0.0965,-0.1625,-0.151,-0.2685,-0.1995,-0.1755,-0.014,0.066,0.087
-0.307,-0.101,0.2055,0.204,-0.256,0.052,-0.104,-0.163,-0.147,-0.2655,-0.194,-0.169,-0.011,0.0615,0.094
-0.304,-0.099,0.2055,0.2015,-0.2545,0.053,-0.103,-0.1555,-0.139,-0.2595,-0.1855,-0.163,-0.009,0.0645,0.0845
-0.2955,-0.09,0.205,0.1925,-0.25,0.0575,-0.0925,-0.1435,-0.1245,-0.246,-0.175,-0.1525,-0.007,0.065,0.0815
-0.292,-0.08,0.2125,0.186,-0.252,0.066,-0.0985,-0.143,-0.1205,-0.242,-0.174,-0.154,-0.0085,0.068,0.08
-0.3015,-0.081,0.2205,0.1915,-0.261,0.0695,-0.106,-0.149,-0.1275,-0.2485,-0.1795,-0.161,-0.0105,0.0675,0.079
-0.316,-0.095,0.221,0.2055,-0.2685,0.063,-0.099,-0.1475,-0.1235,-0.2425,-0.174,-0.1565,-0.0095,0.0605,0.078
-0.3245,-0.1115,0.213,0.218,-0.2685,0.0505,-0.1025,-0.1485,-0.126,-0.2455,-0.179,-0.161,-0.0085,0.063,0.079
-0.3225,-0.1185,0.204,0.2205,-0.263,0.0425,-0.11,-0.1545,-0.1325,-0.253,-0.1855,-0.166,-0.009,0.0545,0.088
-0.33,-0.124,0.2055,0.227,-0.2675,0.0405,-0.116,-0.159,-0.135,-0.2545,-0.187,-0.169,-0.009,0.0485,0.0905
-0.339,-0.1265,0.2125,0.2325,-0.2755,0.043,-0.1185,-0.1555,-0.1325,-0.253,-0.1865,-0.168,-0.0055,0.057,0.0925
-0.334,-0.1125,0.2215,0.223,-0.2775,0.0545,-0.1085,-0.151,-0.1265,-0.2475,-0.18,-0.1615,-0.0075,0.0615,0.0895
-0.3295,-0.101,0.2285,0.215,-0.2785,0.0635,-0.097,-0.1425,-0.118,-0.2395,-0.1725,-0.1555,-0.012,0.057,0.085
-0.3395,-0.104,0.2355,0.2215,-0.287,0.0655,-0.0965,-0.1415,-0.1175,-0.2365,-0.1695,-0.1515,-0.0095,0.06,0.085
-0.3365,-0.111,0.2255,0.2235,-0.281,0.057,-0.1045,-0.1565,-0.1295,-0.2465,-0.178,-0.1605,-0.01,0.0665,0.0865
-0.325,-0.112,0.2125,0.2185,-0.2685,0.05,-0.107,-0.1585,-0.1325,-0.2505,-0.1805,-0.1615,-0.006,0.058,0.093
-0.3215,-0.116,0.2055,0.219,-0.263,0.044,-0.11,-0.1575,-0.1345,-0.2525,-0.1845,-0.1635,-0.0055,0.0585,0.093
-0.31,-0.111,0.199,0.2105,-0.254,0.0435,-0.112,-0.158,-0.135,-0.254,-0.187,-0.1665,-0.006,0.067,0.0945
-0.3245,-0.1215,0.2035,0.223,-0.264,0.0405,-0.1105,-0.167,-0.1415,-0.2565,-0.189,-0.1675,-0.0055,0.062,0.0935
-0.3385,-0.135,0.2035,0.237,-0.2705,0.034,-0.1055,-0.1685,-0.1435,-0.26,-0.1935,-0.1725,-0.0145,0.0665,0.0865
-0.328,-0.1215,0.2065,0.2245,-0.267,0.0425,-0.093,-0.1545,-0.131,-0.251,-0.1845,-0.164,-0.0155,0.0705,0.085
-0.314,-0.1025,0.2115,0.2085,-0.2625,0.0545,-0.0905,-0.1495,-0.124,-0.241,-0.1765,-0.1565,-0.014,0.0725,0.084
-0.31,-0.097,0.2135,0.2035,-0.2615,0.058,-0.0945,-0.1515,-0.126,-0.2425,-0.1765,-0.1575,-0.0145,0.072,0.0815
-0.3095,-0.092,0.2175,0.2005,-0.2635,0.0625,-0.095,-0.152,-0.127,-0.2415,-0.174,-0.154,-0.009,0.069,0.082
-0.311,-0.088,0.223,0.1995,-0.267,0.0675,-0.0975,-0.147,-0.1225,-0.2395,-0.1755,-0.1565,-0.008,0.0725,0.084
-0.315,-0.0955,0.2195,0.2055,-0.267,0.062,-0.103,-0.154,-0.127,-0.245,-0.1805,-0.1625,-0.007,0.068,0.0835
-0.296,-0.086,0.21,0.191,-0.2525,0.0615,-0.1025,-0.1565,-0.128,-0.242,-0.179,-0.1605,-0.0035,0.0725,0.0805
-0.2945,-0.08,0.214,0.1875,-0.254,0.067,-0.091,-0.1445,-0.118,-0.234,-0.1725,-0.1555,-0.0055,0.0835,0.0745
-0.2905,-0.07,0.2205,0.18,-0.255,0.075,-0.0825,-0.1395,-0.1115,-0.2285,-0.167,-0.1505,-0.008,0.0885,0.0705
-0.282,-0.0735,0.2085,0.178,-0.245,0.067,-0.094,-0.1485,-0.124,-0.2395,-0.176,-0.1585,-0.0095,0.084,0.077
-0.2875,-0.0745,0.213,0.181,-0.25,0.069,-0.0885,-0.1415,-0.1215,-0.2375,-0.172,-0.155,-0.009,0.0795,0.0765
-0.2895,-0.0625,0.227,0.176,-0.258,0.082,-0.0785,-0.1345,-0.1105,-0.2285,-0.164,-0.147,-0.009,0.0775,0.072
-0.2945,-0.078,0.2165,0.1865,-0.2555,0.069,-0.09,-0.1505,-0.123,-0.237,-0.174,-0.156,-0.0115,0.073,0.0695
-0.315,-0.088,0.227,0.2015,-0.271,0.0695,-0.089,-0.1505,-0.126,-0.239,-0.177,-0.1595,-0.014,0.074,0.0685
-0.3145,-0.0855,0.229,0.2,-0.2715,0.0715,-0.094,-0.152,-0.13,-0.244,-0.1805,-0.162,-0.0125,0.084,0.069
-0.2685,-0.059,0.21,0.1635,-0.239,0.0755,-0.099,-0.1595,-0.135,-0.246,-0.1815,-0.1615,-0.012,0.0875,0.071
-0.263,-0.0395,0.2235,0.1515,-0.243,0.0915,-0.093,-0.154,-0.1245,-0.234,-0.171,-0.1535,-0.01,0.0885,0.071
-0.283,-0.0345,0.248,0.1585,-0.265,0.1065,-0.089,-0.148,-0.114,-0.2225,-0.16,-0.1445,-0.007,0.105,0.066
-0.2785,-0.0255,0.253,0.152,-0.2655,0.1135,-0.0865,-0.148,-0.1165,-0.224,-0.161,-0.143,-0.0105,0.113,0.0655
-0.2785,-0.0315,0.2475,0.155,-0.263,0.108,-0.0915,-0.1605,-0.1275,-0.2335,-0.171,-0.151,-0.0145,0.117,0.062
-0.3035,-0.0505,0.253,0.177,-0.278,0.101,-0.097,-0.1735,-0.138,-0.2405,-0.1785,-0.1585,-0.017,0.118,0.0635
-0.331,-0.058,0.2735,0.1945,-0.302,0.1075,-0.091,-0.1655,-0.129,-0.231,-0.17,-0.15,-0.014,0.1155,0.065
-0.32,-0.0335,0.2865,0.177,-0.303,0.126,-0.0835,-0.1545,-0.1145,-0.218,-0.158,-0.14,-0.0105,0.1255,0.061
-0.308,-0.033,0.275,0.1705,-0.291,0.1205,-0.09,-0.1595,-0.12,-0.223,-0.164,-0.1465,-0.0095,0.1325,0.0595
-0.3225,-0.0395,0.283,0.181,-0.3025,0.1215,-0.0875,-0.1565,-0.1145,-0.2165,-0.159,-0.143,-0.007,0.1325,0.0535
-0.3055,-0.0365,0.269,0.171,-0.287,0.116,-0.0905,-0.155,-0.115,-0.2185,-0.165,-0.148,-0.0085,0.13,0.0515
-0.282,-0.0515,0.231,0.1665,-0.256,0.0895,-0.1025,-0.1685,-0.1325,-0.238,-0.182,-0.1625,-0.007,0.129,0.0505
-0.2835,-0.0545,0.2295,0.169,-0.256,0.0875,-0.0935,-0.1645,-0.132,-0.241,-0.181,-0.159,-0.0035,0.119,0.05
-0.2835,-0.0585,0.2255,0.171,-0.254,0.0835,-0.0885,-0.1555,-0.1275,-0.238,-0.1765,-0.154,0.004,0.1105,0.0515
-0.294,-0.058,0.236,0.1755,-0.2645,0.089,-0.0855,-0.151,-0.1195,-0.228,-0.1675,-0.145,0.011,0.115,0.05
-0.289,-0.044,0.245,0.1665,-0.2665,0.1005,-0.0745,-0.142,-0.1095,-0.2165,-0.1565,-0.1345,0.0125,0.1135,0.046
-0.267,-0.0245,0.2425,0.1455,-0.2545,0.109,-0.0615,-0.131,-0.099,-0.2075,-0.1475,-0.127,0.0155,0.1085,0.0425
-0.272,-0.0245,0.2475,0.1485,-0.2595,0.111,-0.059,-0.1265,-0.0945,-0.2015,-0.1405,-0.121,0.0235,0.116,0.0485
-0.286,-0.037,0.249,0.1615,-0.2675,0.1055,-0.0675,-0.131,-0.0975,-0.201,-0.14,-0.1195,0.0315,0.1185,0.049
-0.2975,-0.0485,0.249,0.173,-0.273,0.1,-0.0755,-0.1375,-0.104,-0.2065,-0.1475,-0.1255,0.027,0.1135,0.052
-0.3095,-0.068,0.242,0.1885,-0.2755,0.0865,-0.0815,-0.1465,-0.111,-0.2125,-0.1525,-0.131,0.024,0.116,0.0585
-0.314,-0.074,0.24,0.194,-0.277,0.083,-0.0865,-0.145,-0.1085,-0.212,-0.1535,-0.1325,0.029,0.1175,0.057
-0.31,-0.075,0.235,0.1925,-0.2725,0.08,-0.093,-0.1355,-0.1005,-0.205,-0.149,-0.129,0.0365,0.113,0.0575
-0.291,-0.0595,0.2315,0.175,-0.261,0.086,-0.097,-0.1325,-0.0955,-0.199,-0.143,-0.1235,0.0435,0.111,0.0635
-0.283,-0.045,0.2375,0.164,-0.26,0.096,-0.1095,-0.1335,-0.097,-0.1985,-0.1425,-0.1225,0.0465,0.1045,0.0715
-0.2695,-0.035,0.2345,0.152,-0.2515,0.0995,-0.1215,-0.13,-0.092,-0.193,-0.138,-0.1165,0.0525,0.102,0.075
-0.2575,-0.031,0.227,0.144,-0.242,0.0975,-0.1355,-0.141,-0.0995,-0.198,-0.1415,-0.119,0.0535,0.111,0.08
-0.26,-0.0355,0.225,0.148,-0.2425,0.0945,-0.1435,-0.153,-0.1105,-0.2065,-0.146,-0.123,0.053,0.1205,0.0825
-0.2625,-0.0315,0.231,0.147,-0.2465,0.0995,-0.149,-0.1525,-0.1125,-0.2085,-0.1465,-0.1215,0.0495,0.1265,0.0855
-0.264,-0.0265,0.2375,0.1455,-0.2505,0.1055,-0.1565,-0.1555,-0.1105,-0.205,-0.1455,-0.121,0.047,0.1315,0.091
-0.2645,-0.027,0.237,0.1455,-0.2505,0.1045,-0.1565,-0.1565,-0.1065,-0.2,-0.143,-0.1195,0.05,0.136,0.095
-0.263,-0.0165,0.247,0.1395,-0.2545,0.115,-0.153,-0.1515,-0.101,-0.196,-0.138,-0.114,0.049,0.139,0.0975
-0.247,0.0005,0.248,0.1235,-0.2475,0.124,-0.149,-0.149,-0.0995,-0.1935,-0.135,-0.1115,0.0465,0.139,0.1
-0.232,0.0045,0.236,0.114,-0.234,0.12,-0.1625,-0.158,-0.11,-0.2025,-0.142,-0.1175,0.044,0.1355,0.111
-0.229,-0.0055,0.2235,0.117,-0.226,0.1085,-0.179,-0.1685,-0.1185,-0.212,-0.15,-0.125,0.051,0.132,0.122
-0.253,-0.033,0.22,0.143,-0.236,0.093,-0.186,-0.1745,-0.1235,-0.2145,-0.1545,-0.13,0.0555,0.1265,0.124
-0.267,-0.039,0.228,0.153,-0.2475,0.0945,-0.187,-0.1775,-0.1265,-0.216,-0.155,-0.129,0.0515,0.1205,0.1285
-0.2515,-0.0385,0.213,0.145,-0.232,0.087,-0.1885,-0.1805,-0.1295,-0.22,-0.1585,-0.1315,0.05,0.1185,0.1325
-0.245,-0.031,0.2145,0.138,-0.2295,0.0915,-0.1845,-0.1765,-0.126,-0.2155,-0.153,-0.1285,0.0495,0.1265,0.134
-0.281,-0.054,0.227,0.1675,-0.2535,0.086,-0.188,-0.1765,-0.1275,-0.2195,-0.156,-0.1315,0.0485,0.127,0.1345
-0.2815,-0.0645,0.217,0.173,-0.249,0.076,-0.1885,-0.177,-0.1295,-0.222,-0.1575,-0.132,0.051,0.121,0.136
-0.219,-0.006,0.213,0.1125,-0.2155,0.103,-0.171,-0.159,-0.11,-0.2025,-0.1365,-0.111,0.0565,0.1255,0.1395
-0.217,-0.0065,0.2105,0.1115,-0.2135,0.102,-0.1795,-0.1665,-0.11,-0.199,-0.1325,-0.105,0.0615,0.125,0.1425
-0.2225,-0.0205,0.2015,0.1215,-0.212,0.0905,-0.1905,-0.1795,-0.123,-0.21,-0.143,-0.1115,0.0615,0.1255,0.1505
-0.2125,-0.0125,0.1995,0.1125,-0.2055,0.093,-0.185,-0.174,-0.1235,-0.2105,-0.143,-0.1135,0.0595,0.1325,0.1555
-0.226,-0.019,0.207,0.1225,-0.216,0.0935,-0.1835,-0.1755,-0.1275,-0.2135,-0.146,-0.1175,0.0585,0.131,0.161
-0.234,-0.0225,0.2115,0.1285,-0.223,0.0945,-0.1825,-0.177,-0.1275,-0.2155,-0.15,-0.1205,0.057,0.131,0.162
-0.2385,-0.0225,0.216,0.1305,-0.227,0.0965,-0.1775,-0.18,-0.1295,-0.218,-0.153,-0.123,0.0515,0.132,0.157
-0.2435,-0.03,0.2135,0.1365,-0.2285,0.0915,-0.173,-0.1855,-0.138,-0.227,-0.16,-0.1295,0.045,0.136,0.16
-0.237,-0.019,0.218,0.128,-0.2275,0.0995,-0.1625,-0.177,-0.132,-0.2205,-0.1535,-0.1235,0.042,0.14,0.155
-0.218,0.0055,0.2235,0.106,-0.2205,0.1145,-0.1455,-0.163,-0.122,-0.2095,-0.143,-0.1125,0.0405,0.136,0.1495
-0.232,-0.0185,0.2135,0.125,-0.2225,0.097,-0.1505,-0.17,-0.1275,-0.217,-0.1505,-0.123,0.04,0.127,0.1455
-0.271,-0.0665,0.2045,0.169,-0.2375,0.0685,-0.171,-0.184,-0.143,-0.233,-0.166,-0.1385,0.0385,0.114,0.1455
-0.3015,-0.1,0.2015,0.2005,-0.251,0.0505,-0.1825,-0.1925,-0.1535,-0.242,-0.174,-0.1465,0.041,0.1075,0.1455
-0.2995,-0.102,0.1975,0.201,-0.248,0.0475,-0.178,-0.1895,-0.1525,-0.2435,-0.1775,-0.1485,0.041,0.0985,0.1365
-0.2705,-0.076,0.195,0.173,-0.2325,0.059,-0.164,-0.175,-0.1435,-0.2365,-0.1715,-0.1425,0.0385,0.0975,0.1305
-0.242,-0.0455,0.1965,0.1435,-0.219,0.0755,-0.152,-0.169,-0.1335,-0.2245,-0.1605,-0.1355,0.0365,0.1095,0.126
-0.232,-0.043,0.189,0.1375,-0.2105,0.073,-0.149,-0.171,-0.135,-0.2255,-0.1595,-0.1345,0.0365,0.103,0.1265
-0.26,-0.067,0.193,0.1635,-0.2265,0.0625,-0.16,-0.181,-0.1475,-0.2375,-0.1715,-0.146,0.035,0.1065,0.1305
-0.2705,-0.069,0.202,0.17,-0.236,0.0665,-0.1605,-0.184,-0.1515,-0.2405,-0.177,-0.1535,0.027,0.1115,0.131
-0.25,-0.0545,0.196,0.152,-0.2225,0.0705,-0.153,-0.1805,-0.147,-0.235,-0.1705,-0.1475,0.028,0.098,0.132
-0.253,-0.0575,0.1955,0.1555,-0.224,0.0685,-0.151,-0.182,-0.148,-0.236,-0.1705,-0.1445,0.0305,0.0975,0.1315
-0.2615,-0.065,0.1965,0.163,-0.229,0.066,-0.1485,-0.181,-0.151,-0.2395,-0.172,-0.1435,0.0305,0.1095,0.13
-0.26,-0.0665,0.1935,0.1635,-0.2265,0.0635,-0.1505,-0.181,-0.154,-0.2445,-0.175,-0.1435,0.0315,0.1095,0.134
-0.2575,-0.0605,0.197,0.159,-0.227,0.068,-0.145,-0.178,-0.1495,-0.24,-0.1705,-0.138,0.0325,0.1005,0.1365
-0.252,-0.056,0.196,0.154,-0.2235,0.0695,-0.1475,-0.1765,-0.144,-0.2315,-0.1635,-0.1315,0.0385,0.0955,0.1395
-0.261,-0.075,0.186,0.168,-0.2235,0.055,-0.1575,-0.179,-0.1455,-0.2315,-0.164,-0.1345,0.0415,0.079,0.1415
-0.2755,-0.0955,0.18,0.1855,-0.2275,0.042,-0.168,-0.187,-0.153,-0.2395,-0.1695,-0.1405,0.04,0.068,0.1465
-0.271,-0.0965,0.1745,0.184,-0.2225,0.0385,-0.165,-0.1805,-0.15,-0.239,-0.1705,-0.142,0.0395,0.066,0.149
-0.2605,-0.0945,0.166,0.1775,-0.213,0.0355,-0.1505,-0.164,-0.137,-0.2295,-0.1645,-0.139,0.042,0.061,0.144
-0.2545,-0.094,0.1605,0.1745,-0.207,0.033,-0.152,-0.1605,-0.1325,-0.227,-0.164,-0.1405,0.0435,0.0635,0.143
-0.248,-0.085,0.163,0.1665,-0.2055,0.0385,-0.149,-0.158,-0.1315,-0.2275,-0.164,-0.1395,0.0405,0.07,0.1455
-0.242,-0.077,0.165,0.1595,-0.2035,0.0435,-0.1445,-0.159,-0.136,-0.2325,-0.1655,-0.139,0.0375,0.068,0.1475
-0.2325,-0.0695,0.163,0.151,-0.1975,0.0465,-0.137,-0.157,-0.1335,-0.229,-0.1625,-0.137,0.036,0.059,0.145
-0.228,-0.062,0.166,0.145,-0.1965,0.052,-0.132,-0.1555,-0.131,-0.2265,-0.159,-0.133,0.0335,0.063,0.138
-0.2285,-0.054,0.174,0.141,-0.201,0.06,-0.1325,-0.1535,-0.1285,-0.223,-0.1555,-0.1315,0.0265,0.0685,0.1285
-0.2365,-0.053,0.1835,0.145,-0.21,0.065,-0.131,-0.1505,-0.1265,-0.22,-0.154,-0.1325,0.0235,0.0755,0.1225
-0.2305,-0.0545,0.1755,0.1425,-0.203,0.0605,-0.133,-0.1565,-0.134,-0.2255,-0.158,-0.134,0.0245,0.0755,0.124
-0.205,-0.0515,0.1535,0.128,-0.179,0.0505,-0.137,-0.1635,-0.1425,-0.234,-0.1655,-0.1395,0.0245,0.0635,0.128
-0.216,-0.0685,0.1475,0.1425,-0.1815,0.0395,-0.1385,-0.1665,-0.149,-0.243,-0.1735,-0.148,0.021,0.0505,0.133
-0.233,-0.0925,0.141,0.1625,-0.187,0.024,-0.143,-0.167,-0.1535,-0.248,-0.1815,-0.1565,0.0185,0.0375,0.1375
-0.2475,-0.11,0.138,0.1785,-0.1925,0.014,-0.146,-0.167,-0.155,-0.2505,-0.186,-0.1615,0.0135,0.039,0.137
-0.2595,-0.108,0.152,0.184,-0.2055,0.0215,-0.137,-0.164,-0.15,-0.2445,-0.1815,-0.16,0.0095,0.0425,0.133
-0.261,-0.1005,0.1605,0.1805,-0.2105,0.03,-0.131,-0.161,-0.148,-0.2425,-0.179,-0.1575,0.0105,0.046,0.129
-0.287,-0.113,0.174,0.1995,-0.2305,0.0305,-0.1265,-0.163,-0.148,-0.2425,-0.1765,-0.1575,0.008,0.0615,0.124
-0.3195,-0.126,0.193,0.223,-0.256,0.0335,-0.1205,-0.1615,-0.146,-0.2405,-0.176,-0.1585,0.0045,0.0615,0.1205
-0.334,-0.148,0.1865,0.241,-0.26,0.019,-0.121,-0.1665,-0.1555,-0.251,-0.187,-0.169,-0.007,0.039,0.1205
-0.3355,-0.1555,0.18,0.2455,-0.2575,0.012,-0.1165,-0.1685,-0.161,-0.257,-0.194,-0.1765,-0.0145,0.0285,0.123
-0.328,-0.135,0.193,0.2315,-0.26,0.0285,-0.1025,-0.158,-0.1525,-0.249,-0.186,-0.1705,-0.018,0.0385,0.121
-0.297,-0.1255,0.1715,0.211,-0.234,0.023,-0.1055,-0.1625,-0.1585,-0.2555,-0.191,-0.176,-0.0195,0.044,0.1175
-0.283,-0.1265,0.1565,0.205,-0.2195,0.015,-0.106,-0.1615,-0.1605,-0.2605,-0.194,-0.1785,-0.0155,0.036,0.114
-0.3015,-0.132,0.169,0.217,-0.235,0.0185,-0.101,-0.155,-0.155,-0.255,-0.1885,-0.1735,-0.0145,0.0305,0.11
-0.2995,-0.1295,0.1695,0.2145,-0.234,0.02,-0.1015,-0.154,-0.1535,-0.2515,-0.186,-0.171,-0.011,0.0365,0.1085
-0.2905,-0.1255,0.165,0.208,-0.228,0.02,-0.102,-0.149,-0.1495,-0.2495,-0.1835,-0.166,-0.009,0.044,0.1075
-0.317,-0.1505,0.167,0.234,-0.242,0.008,-0.118,-0.1615,-0.1585,-0.2575,-0.192,-0.1765,-0.01,0.044,0.1075
-0.324,-0.154,0.1695,0.239,-0.2465,0.0075,-0.1255,-0.173,-0.166,-0.261,-0.195,-0.181,-0.0095,0.047,0.1105
-0.326,-0.1375,0.1885,0.232,-0.257,0.025,-0.1145,-0.164,-0.155,-0.25,-0.1815,-0.168,-0.0085,0.0425,0.111
-0.3315,-0.142,0.19,0.2365,-0.2605,0.0235,-0.112,-0.161,-0.155,-0.251,-0.1835,-0.1705,-0.013,0.039,0.1125
-0.309,-0.1345,0.1745,0.2215,-0.2415,0.0195,-0.1125,-0.1685,-0.165,-0.2595,-0.1915,-0.177,-0.017,0.043,0.1155
-0.3105,-0.121,0.1895,0.2155,-0.2495,0.034,-0.104,-0.162,-0.1595,-0.253,-0.186,-0.1715,-0.02,0.0415,0.1155
-0.3425,-0.1255,0.217,0.234,-0.2795,0.0455,-0.0885,-0.145,-0.1455,-0.241,-0.1755,-0.1615,-0.02,0.042,0.112
-0.3625,-0.1335,0.229,0.2485,-0.2955,0.0475,-0.088,-0.1455,-0.1465,-0.242,-0.1735,-0.161,-0.023,0.0425,0.1115
-0.37,-0.133,0.237,0.2515,-0.3035,0.052,-0.0865,-0.1485,-0.148,-0.2435,-0.1755,-0.162,-0.024,0.049,0.1175
-0.414,-0.14,0.274,0.277,-0.3435,0.0665,-0.0705,-0.1355,-0.1345,-0.2295,-0.1605,-0.148,-0.0195,0.053,0.113
-0.3735,-0.158,0.216,0.266,-0.2945,0.029,-0.093,-0.1575,-0.1565,-0.252,-0.1855,-0.173,-0.024,0.0415,0.1065
-0.3095,-0.161,0.1485,0.235,-0.2285,-0.0065,-0.1105,-0.1765,-0.1775,-0.275,-0.2095,-0.197,-0.0235,0.0315,0.1065
-0.29,-0.156,0.134,0.223,-0.212,-0.0115,-0.115,-0.1785,-0.181,-0.2795,-0.212,-0.2005,-0.022,0.0315,0.1085
-0.267,-0.1515,0.1155,0.209,-0.191,-0.018,-0.122,-0.187,-0.1885,-0.288,-0.219,-0.206,-0.022,0.0345,0.111
-0.288,-0.146,0.142,0.217,-0.2145,-0.0025,-0.11,-0.1735,-0.1765,-0.2755,-0.2055,-0.1945,-0.021,0.0315,0.111
-0.3015,-0.148,0.1535,0.225,-0.227,0.0025,-0.106,-0.166,-0.1705,-0.2705,-0.2015,-0.1895,-0.021,0.0255,0.111
-0.3015,-0.1395,0.162,0.2205,-0.2315,0.011,-0.0995,-0.156,-0.16,-0.2605,-0.192,-0.1815,-0.018,0.0305,0.108
-0.297,-0.13,0.167,0.2135,-0.2315,0.0185,-0.0975,-0.1545,-0.159,-0.26,-0.191,-0.182,-0.021,0.033,0.108
-0.3,-0.136,0.164,0.218,-0.232,0.014,-0.1015,-0.1625,-0.167,-0.269,-0.199,-0.1885,-0.0245,0.0225,0.1095
-0.303,-0.138,0.165,0.2205,-0.234,0.0135,-0.1035,-0.1645,-0.1665,-0.268,-0.198,-0.1875,-0.024,0.0235,0.111
-0.31,-0.149,0.1605,0.2295,-0.235,0.0055,-0.1055,-0.169,-0.1715,-0.274,-0.2045,-0.1955,-0.026,0.0275,0.1115
-0.319,-0.158,0.161,0.2385,-0.24,0.001,-0.1055,-0.17,-0.177,-0.2785,-0.21,-0.205,-0.0315,0.023,0.1085
-0.322,-0.1555,0.1665,0.239,-0.244,0.005,-0.106,-0.1735,-0.1795,-0.2815,-0.2135,-0.208,-0.0365,0.0275,0.104
-0.323,-0.1595,0.1635,0.2415,-0.243,0.002,-0.109,-0.1725,-0.1805,-0.2845,-0.2155,-0.2095,-0.036,0.028,0.1055
-0.3175,-0.149,0.1685,0.2335,-0.2425,0.0095,-0.1015,-0.16,-0.168,-0.2715,-0.202,-0.1965,-0.0275,0.0245,0.1015
-0.315,-0.1395,0.1755,0.2275,-0.245,0.0175,-0.0955,-0.156,-0.1575,-0.2595,-0.19,-0.184,-0.0205,0.0205,0.0985
-0.318,-0.1455,0.173,0.2315,-0.245,0.0135,-0.0985,-0.158,-0.1625,-0.264,-0.1945,-0.186,-0.0215,0.028,0.1025
-0.333,-0.1585,0.175,0.246,-0.2535,0.008,-0.0995,-0.16,-0.165,-0.2675,-0.1995,-0.1905,-0.023,0.044,0.1
-0.338,-0.1695,0.1685,0.2535,-0.253,-0.0005,-0.1065,-0.1725,-0.178,-0.2775,-0.2095,-0.2,-0.0255,0.0395,0.1025
-0.345,-0.17,0.175,0.2575,-0.2595,0.002,-0.1045,-0.1715,-0.1785,-0.277,-0.2105,-0.2035,-0.027,0.0325,0.099
-0.353,-0.1775,0.175,0.265,-0.264,-0.0015,-0.1015,-0.1675,-0.1755,-0.2775,-0.215,-0.211,-0.0295,0.03,0.094
-0.3455,-0.178,0.1675,0.262,-0.2565,-0.0055,-0.1025,-0.172,-0.186,-0.2895,-0.226,-0.2185,-0.0355,0.023,0.0975
-0.336,-0.17,0.166,0.253,-0.251,-0.0025,-0.1,-0.1735,-0.185,-0.288,-0.2225,-0.214,-0.035,0.0235,0.101
-0.3225,-0.1605,0.1625,0.2415,-0.2425,0.001,-0.1005,-0.176,-0.183,-0.2845,-0.2185,-0.2095,-0.0315,0.0235,0.1065
-0.3235,-0.149,0.175,0.2365,-0.249,0.013,-0.0965,-0.1635,-0.174,-0.275,-0.2065,-0.198,-0.029,0.0285,0.1055
-0.3155,-0.1385,0.177,0.227,-0.246,0.019,-0.094,-0.1525,-0.168,-0.272,-0.2005,-0.1885,-0.0285,0.0355,0.106
-0.319,-0.1465,0.1725,0.233,-0.2455,0.0125,-0.0895,-0.157,-0.1745,-0.2785,-0.204,-0.1895,-0.03,0.0315,0.104
-0.333,-0.1485,0.1845,0.241,-0.2585,0.0175,-0.08,-0.1555,-0.1685,-0.2715,-0.1965,-0.1845,-0.034,0.0325,0.0985
-0.3315,-0.1385,0.193,0.235,-0.262,0.027,-0.074,-0.15,-0.163,-0.2675,-0.1935,-0.1825,-0.0385,0.0375,0.0985
-0.347,-0.1625,0.1845,0.2545,-0.2655,0.0105,-0.086,-0.1625,-0.1745,-0.2805,-0.207,-0.1965,-0.0385,0.034,0.1025
-0.3385,-0.163,0.1755,0.2505,-0.2565,0.006,-0.0895,-0.1635,-0.176,-0.2815,-0.209,-0.198,-0.038,0.029,0.105
-0.316,-0.1465,0.1695,0.2315,-0.2425,0.011,-0.076,-0.154,-0.1695,-0.276,-0.2045,-0.194,-0.0415,0.029,0.1035
-0.317,-0.1495,0.1675,0.2335,-0.242,0.009,-0.078,-0.1565,-0.1705,-0.2785,-0.207,-0.198,-0.043,0.031,0.101
-0.334,-0.162,0.1725,0.248,-0.253,0.005,-0.088,-0.159,-0.1725,-0.2795,-0.208,-0.199,-0.04,0.026,0.101
-0.34,-0.1665,0.1735,0.253,-0.2565,0.0035,-0.085,-0.1515,-0.1655,-0.2725,-0.203,-0.194,-0.0345,0.0195,0.0995
-0.322,-0.145,0.177,0.234,-0.2495,0.016,-0.0815,-0.1475,-0.1605,-0.2655,-0.197,-0.1875,-0.0305,0.027,0.1035
-0.3325,-0.1575,0.1755,0.245,-0.2535,0.009,-0.09,-0.1615,-0.169,-0.273,-0.2035,-0.1945,-0.034,0.0255,0.104
-0.3355,-0.1635,0.172,0.249,-0.2535,0.004,-0.091,-0.1645,-0.1725,-0.2765,-0.2045,-0.196,-0.037,0.022,0.1005
-0.329,-0.156,0.173,0.2425,-0.2505,0.0085,-0.0905,-0.162,-0.17,-0.273,-0.201,-0.19,-0.034,0.0295,0.1005
-0.326,-0.1515,0.1745,0.239,-0.25,0.0115,-0.086,-0.154,-0.163,-0.2645,-0.193,-0.184,-0.0325,0.032,0.0975
-0.325,-0.151,0.174,0.238,-0.2495,0.0115,-0.083,-0.152,-0.164,-0.2645,-0.1945,-0.1865,-0.034,0.0305,0.0985
-0.376,-0.203,0.173,0.2895,-0.2745,-0.015,-0.099,-0.171,-0.182,-0.284,-0.216,-0.2055,-0.0365,0.021,0.0985
-0.333,-0.1595,0.173,0.2465,-0.2525,0.0065,-0.079,-0.156,-0.1655,-0.2665,-0.197,-0.188,-0.0355,0.023,0.0985
-0.3025,-0.1245,0.178,0.2135,-0.24,0.0265,-0.066,-0.1455,-0.153,-0.2545,-0.184,-0.1765,-0.033,0.0325,0.0985
-0.3415,-0.164,0.1775,0.2525,-0.2595,0.007,-0.0835,-0.1585,-0.168,-0.2715,-0.201,-0.194,-0.034,0.0335,0.0985
-0.333,-0.1535,0.1795,0.243,-0.256,0.013,-0.076,-0.153,-0.164,-0.267,-0.197,-0.1895,-0.0355,0.0335,0.0975
-0.3415,-0.1565,0.185,0.2485,-0.263,0.014,-0.079,-0.156,-0.1665,-0.27,-0.1995,-0.193,-0.036,0.0325,0.1015
-0.3345,-0.1525,0.182,0.2435,-0.258,0.0145,-0.083,-0.1565,-0.167,-0.269,-0.2,-0.195,-0.0355,0.029,0.104
-0.323,-0.151,0.172,0.237,-0.2475,0.01,-0.0825,-0.1545,-0.165,-0.2675,-0.199,-0.1935,-0.033,0.028,0.0965
-0.328,-0.1515,0.1765,0.24,-0.252,0.012,-0.081,-0.1535,-0.1645,-0.2685,-0.1995,-0.194,-0.0365,0.0315,0.099
-0.3405,-0.1455,0.195,0.243,-0.2675,0.0245,-0.0735,-0.147,-0.1595,-0.2635,-0.194,-0.1885,-0.0405,0.0255,0.104
-0.3345,-0.1485,0.186,0.2415,-0.26,0.0185,-0.081,-0.1495,-0.1625,-0.266,-0.1975,-0.192,-0.038,0.027,0.102
-0.333,-0.1535,0.1795,0.2435,-0.256,0.0125,-0.087,-0.156,-0.1695,-0.2745,-0.206,-0.2005,-0.0415,0.0345,0.101
-0.335,-0.158,0.177,0.2465,-0.2555,0.009,-0.088,-0.1575,-0.1725,-0.2775,-0.2105,-0.204,-0.0435,0.0275,0.0985
-0.3315,-0.1595,0.1725,0.2455,-0.252,0.0065,-0.087,-0.1535,-0.168,-0.273,-0.2085,-0.2045,-0.0425,0.0245,0.097
-0.332,-0.1625,0.1695,0.2475,-0.2505,0.003,-0.087,-0.1565,-0.172,-0.2775,-0.2105,-0.207,-0.04,0.0265,0.099
-0.3305,-0.1625,0.1675,0.2465,-0.2485,0.002,-0.0915,-0.1615,-0.1775,-0.2815,-0.214,-0.2095,-0.0405,0.0275,0.102
-0.333,-0.1545,0.1785,0.2435,-0.2555,0.012,-0.09,-0.162,-0.176,-0.2765,-0.209,-0.205,-0.0425,0.0305,0.102
-0.3365,-0.1505,0.186,0.2435,-0.261,0.0175,-0.0815,-0.158,-0.1715,-0.272,-0.2055,-0.202,-0.044,0.039,0.097
-0.349,-0.161,0.1885,0.255,-0.2685,0.0135,-0.0795,-0.157,-0.173,-0.273,-0.2055,-0.202,-0.0435,0.0395,0.0955
-0.344,-0.1625,0.181,0.2535,-0.2625,0.009,-0.0835,-0.1575,-0.1725,-0.273,-0.205,-0.2,-0.0365,0.03,0.097
-0.3205,-0.155,0.165,0.2375,-0.2425,0.005,-0.0905,-0.1595,-0.1775,-0.28,-0.21,-0.2045,-0.0345,0.0255,0.1015
-0.316,-0.159,0.157,0.2375,-0.236,-0.001,-0.098,-0.171,-0.1895,-0.2905,-0.217,-0.2085,-0.0295,0.0285,0.1085
-0.3285,-0.1595,0.1685,0.244,-0.2485,0.0045,-0.095,-0.167,-0.185,-0.285,-0.213,-0.205,-0.029,0.039,0.1055
-0.337,-0.156,0.181,0.2465,-0.259,0.0125,-0.09,-0.1615,-0.178,-0.2785,-0.2085,-0.2035,-0.033,0.043,0.1035
-0.33,-0.15,0.1805,0.24,-0.255,0.015,-0.0885,-0.1595,-0.175,-0.276,-0.2065,-0.2025,-0.0325,0.039,0.1025
-0.314,-0.139,0.175,0.2265,-0.2445,0.018,-0.087,-0.1565,-0.175,-0.2785,-0.21,-0.2035,-0.0385,0.036,0.0995
-0.3075,-0.136,0.172,0.2215,-0.2395,0.018,-0.0915,-0.1595,-0.178,-0.282,-0.213,-0.205,-0.041,0.0445,0.1005
-0.3135,-0.1375,0.1765,0.2255,-0.2445,0.0195,-0.092,-0.1555,-0.172,-0.2745,-0.2035,-0.199,-0.035,0.0485,0.1015
-0.3245,-0.147,0.1775,0.2355,-0.2505,0.015,-0.089,-0.152,-0.1705,-0.275,-0.2035,-0.199,-0.033,0.0375,0.1015
-0.332,-0.1565,0.1755,0.2445,-0.2535,0.0095,-0.0905,-0.1555,-0.1735,-0.278,-0.2085,-0.2025,-0.034,0.0425,0.1005
-0.338,-0.163,0.175,0.2505,-0.2565,0.0055,-0.094,-0.1615,-0.178,-0.28,-0.21,-0.206,-0.033,0.045,0.1015
-0.337,-0.163,0.174,0.25,-0.2555,0.005,-0.095,-0.164,-0.1825,-0.285,-0.215,-0.209,-0.0345,0.057,0.099
-0.337,-0.159,0.1785,0.248,-0.2575,0.0095,-0.0845,-0.156,-0.175,-0.277,-0.2085,-0.205,-0.034,0.069,0.0915
-0.339,-0.162,0.177,0.2505,-0.258,0.0075,-0.084,-0.158,-0.178,-0.2785,-0.2105,-0.2085,-0.0345,0.0575,0.0895
-0.3325,-0.1695,0.163,0.251,-0.2475,-0.0035,-0.0965,-0.1735,-0.1905,-0.29,-0.221,-0.217,-0.0365,0.0435,0.0925
-0.334,-0.171,0.163,0.2525,-0.2485,-0.004,-0.0995,-0.175,-0.1925,-0.2935,-0.2245,-0.2205,-0.039,0.0425,0.0935
-0.325,-0.1565,0.1685,0.241,-0.2465,0.006,-0.0975,-0.1695,-0.1905,-0.291,-0.223,-0.2175,-0.0405,0.0595,0.091
-0.2995,-0.1265,0.1725,0.213,-0.236,0.023,-0.0885,-0.161,-0.184,-0.284,-0.2165,-0.208,-0.041,0.0505,0.0895
-0.312,-0.1235,0.1885,0.2175,-0.25,0.032,-0.085,-0.1595,-0.1845,-0.2865,-0.2185,-0.2085,-0.049,0.0435,0.0895
-0.3275,-0.1315,0.196,0.2295,-0.2615,0.032,-0.085,-0.162,-0.183,-0.2845,-0.2145,-0.205,-0.0445,0.0515,0.0895
-0.3235,-0.1245,0.199,0.224,-0.261,0.037,-0.082,-0.1575,-0.179,-0.2805,-0.2115,-0.2025,-0.0475,0.0505,0.0875
-0.3245,-0.131,0.193,0.2275,-0.2585,0.0305,-0.0885,-0.154,-0.177,-0.28,-0.212,-0.2045,-0.0515,0.052,0.0865
-0.3195,-0.127,0.1925,0.223,-0.2555,0.0325,-0.0885,-0.1515,-0.1735,-0.2765,-0.208,-0.199,-0.047,0.053,0.088
-0.312,-0.1245,0.187,0.218,-0.249,0.031,-0.08,-0.1525,-0.177,-0.2805,-0.2145,-0.205,-0.0555,0.061,0.088
-0.3,-0.1285,0.1715,0.214,-0.2355,0.021,-0.0785,-0.1515,-0.1805,-0.285,-0.218,-0.2095,-0.055,0.0485,0.0925
-0.3205,-0.141,0.1795,0.2305,-0.2495,0.019,-0.0855,-0.151,-0.178,-0.284,-0.217,-0.21,-0.0495,0.041,0.0945
-0.3325,-0.139,0.1935,0.236,-0.263,0.027,-0.0835,-0.1455,-0.168,-0.27,-0.204,-0.198,-0.041,0.0625,0.093
-0.326,-0.131,0.195,0.2285,-0.2605,0.032,-0.0725,-0.1365,-0.157,-0.259,-0.193,-0.19,-0.039,0.082,0.089
-0.33,-0.1395,0.1905,0.2345,-0.26,0.0255,-0.0695,-0.135,-0.155,-0.262,-0.199,-0.1975,-0.0465,0.0795,0.0865
-0.322,-0.134,0.188,0.228,-0.255,0.027,-0.071,-0.13,-0.152,-0.2595,-0.1965,-0.194,-0.045,0.067,0.087
-0.338,-0.15,0.188,0.244,-0.263,0.0185,-0.072,-0.123,-0.1475,-0.2585,-0.196,-0.1965,-0.0425,0.054,0.0835
-0.3475,-0.1615,0.186,0.2545,-0.2665,0.012,-0.066,-0.1195,-0.147,-0.2615,-0.1985,-0.199,-0.0435,0.0365,0.0795
-0.3445,-0.173,0.1715,0.2585,-0.258,-0.001,-0.0515,-0.1075,-0.1425,-0.263,-0.2,-0.2,-0.0505,0.014,0.0745
-0.342,-0.182,0.16,0.262,-0.251,-0.011,-0.044,-0.0965,-0.136,-0.2605,-0.1995,-0.2005,-0.051,-0.0025,0.069
-0.3375,-0.1905,0.1475,0.264,-0.2425,-0.0215,-0.037,-0.0875,-0.13,-0.2575,-0.199,-0.202,-0.053,-0.003,0.0625
-0.338,-0.212,0.126,0.275,-0.2315,-0.043,-0.0155,-0.0725,-0.1285,-0.265,-0.2115,-0.2185,-0.0675,-0.017,0.0575
-0.338,-0.2135,0.1245,0.2755,-0.231,-0.0445,0.0085,-0.0555,-0.1245,-0.273,-0.2235,-0.2345,-0.0815,-0.036,0.0445
-0.347,-0.2305,0.116,0.2885,-0.231,-0.0575,0.03,-0.0365,-0.114,-0.2735,-0.2315,-0.2465,-0.0965,-0.0585,0.0265
-0.356,-0.251,0.105,0.3035,-0.23,-0.0735,0.041,-0.025,-0.1075,-0.276,-0.239,-0.2575,-0.108,-0.06,0.015
-0.3795,-0.276,0.1035,0.328,-0.2415,-0.0865,0.05,-0.018,-0.103,-0.2785,-0.2485,-0.2705,-0.1125,-0.0535,0.0015
-0.3975,-0.3015,0.096,0.3495,-0.2465,-0.103,0.062,-0.0085,-0.0995,-0.2825,-0.2595,-0.284,-0.119,-0.064,-0.009
-0.4035,-0.3125,0.091,0.358,-0.247,-0.111,0.074,0.005,-0.0875,-0.2755,-0.2535,-0.283,-0.1235,-0.0775,-0.0155
-0.413,-0.328,0.085,0.3705,-0.2485,-0.1215,0.0875,0.0165,-0.072,-0.262,-0.2455,-0.28,-0.124,-0.0925,-0.026
-0.4115,-0.332,0.0795,0.372,-0.2455,-0.1265,0.0965,0.029,-0.0585,-0.252,-0.2425,-0.281,-0.1235,-0.101,-0.039
-0.404,-0.327,0.077,0.3655,-0.24,-0.1255,0.094,0.0295,-0.054,-0.245,-0.238,-0.281,-0.1245,-0.115,-0.0395
-0.397,-0.322,0.075,0.3595,-0.2355,-0.124,0.096,0.0355,-0.0415,-0.229,-0.2275,-0.275,-0.1225,-0.108,-0.044
-0.3965,-0.3315,0.065,0.364,-0.2305,-0.1335,0.1015,0.0615,-0.015,-0.207,-0.213,-0.2675,-0.1115,-0.114,-0.0565
-0.392,-0.344,0.048,0.368,-0.2195,-0.1485,0.1025,0.082,0.016,-0.1755,-0.19,-0.2575,-0.092,-0.1295,-0.07
